Measurement Sequence started on: 15-12-46-377
Integration time: 28
Scans to Average: 2 
>>>>>Begin Spectral Data<<<<<
432.689 .0000100
433.621 .0000100
434.552 .0000100
435.482 .0000100
436.410 .0000100
437.337 .0000100
438.262 .0000100
439.187 .0000100
440.110 .0000100
441.031 .0000100
441.952 .0000100
442.871 .0513411
443.789 .0530528
444.705 .0547014
445.621 .0552335
446.535 .0566826
447.447 .0581170
448.359 .0595145
449.269 .0608766
450.178 .0622105
451.086 .0635201
451.993 .0648135
452.898 .0496719
453.803 .0430573
454.706 .0391812
455.608 .0386447
456.508 .0361158
457.408 .0342617
458.306 .0328329
459.204 .0316826
460.100 .0307548
460.995 .0299797
461.888 .0293306
462.781 .0287557
463.673 .0282344
464.563 .0277627
465.452 .0273214
466.340 .0269084
467.228 .0265233
468.114 .0261490
468.999 .0258086
469.882 .0255016
470.765 .0252211
471.647 .0249578
472.528 .0247046
473.407 .0244711
474.286 .0242620
475.163 .0240613
476.040 .0238771
476.915 .0237050
477.790 .0235463
478.663 .0234057
479.535 .0232835
480.407 .0231811
481.277 .0230948
482.147 .0230244
483.015 .0229770
483.883 .0229408
484.749 .0229115
485.615 .0228933
486.479 .0228911
487.343 .0229006
488.206 .0229148
489.067 .0229331
489.928 .0229595
490.788 .0229851
491.647 .0230173
492.505 .0230632
493.362 .0231221
494.218 .0231877
495.073 .0232704
495.928 .0233584
496.781 .0234511
497.634 .0235506
498.486 .0236687
499.337 .0237971
500.187 .0239376
501.036 .0240863
501.884 .0242567
502.731 .0244486
503.578 .0246582
504.424 .0248872
505.268 .0251444
506.113 .0254156
506.956 .0257010
507.798 .0260205
508.640 .0263698
509.480 .0267212
510.320 .0271150
511.160 .0275621
511.998 .0280632
512.836 .0290049
513.672 .0296272
514.508 .0303279
515.344 .0310979
516.178 .0319822
517.012 .0329811
517.845 .0341096
518.677 .0353693
519.508 .0367944
520.339 .0383656
521.169 .0400266
521.998 .0417963
522.826 .0430609
523.654 .0450138
524.481 .0468556
525.307 .0486531
526.133 .0503364
526.958 .0519446
527.782 .0535313
528.605 .0549035
529.428 .0560523
530.250 .0569465
531.072 .0576415
531.892 .0581454
532.712 .0584932
533.532 .0586639
534.350 .0587090
535.168 .0585998
535.986 .0583489
536.802 .0579261
537.618 .0573130
538.434 .0565048
539.249 .0555190
540.063 .0543325
540.876 .0529671
541.689 .0514469
542.501 .0497722
543.313 .0479327
544.124 .0459432
544.934 .0440305
545.744 .0421107
546.553 .0402672
547.361 .0384685
548.169 .0366496
548.976 .0349956
549.783 .0335467
550.589 .0322913
551.395 .0311710
552.200 .0301767
553.004 .0292626
553.808 .0284564
554.611 .0277193
555.414 .0270387
556.216 .0264144
557.018 .0258314
557.819 .0253037
558.619 .0248221
559.419 .0243780
560.218 .0239493
561.017 .0235378
561.815 .0231614
562.613 .0228098
563.410 .0224790
564.207 .0221625
565.003 .0218571
565.799 .0215707
566.594 .0213006
567.388 .0210409
568.182 .0207844
568.976 .0205425
569.769 .0203093
570.562 .0200963
571.354 .0198961
572.145 .0196989
572.936 .0195153
573.727 .0193438
574.517 .0191810
575.307 .0190244
576.096 .0188781
576.885 .0187422
577.673 .0186184
578.461 .0185019
579.248 .0183894
580.035 .0182868
580.821 .0181923
581.607 .0181056
582.392 .0180238
583.177 .0179507
583.962 .0178810
584.746 .0178164
585.529 .0177600
586.313 .0177091
587.095 .0176635
587.878 .0176242
588.660 .0175894
589.441 .0175566
590.222 .0175277
591.003 .0175008
591.783 .0174794
592.563 .0174651
593.342 .0174558
594.121 .0174501
594.899 .0174475
595.678 .0174474
596.455 .0174499
597.233 .0174540
598.009 .0174586
598.786 .0174633
599.562 .0174703
600.338 .0174781
601.113 .0174875
601.888 .0174969
602.663 .0175070
603.437 .0175150
604.211 .0175245
604.984 .0175331
605.757 .0175402
606.530 .0175473
607.302 .0175538
608.074 .0175608
608.845 .0175679
609.616 .0175730
610.387 .0175784
611.158 .0175850
611.928 .0175905
612.697 .0175958
613.467 .0176017
614.236 .0176074
615.004 .0176143
615.773 .0176214
616.541 .0176294
617.308 .0176374
618.076 .0176458
618.843 .0176509
619.609 .0176594
620.375 .0176679
621.141 .0176767
621.907 .0176853
622.672 .0176949
623.437 .0177048
624.202 .0177141
624.966 .0177231
625.730 .0177322
626.493 .0177405
627.257 .0177488
628.020 .0177568
628.782 .0177650
629.545 .0177726
630.307 .0177805
631.068 .0177878
631.830 .0177935
632.591 .0177993
633.352 .0178045
634.112 .0178092
634.872 .0178133
635.632 .0178166
636.392 .0178193
637.151 .0178216
637.910 .0178241
638.668 .0178267
639.427 .0178290
640.185 .0178314
640.943 .0178336
641.700 .0178351
642.457 .0178368
643.214 .0178383
643.971 .0178395
644.727 .0178408
645.483 .0178421
646.239 .0178439
646.994 .0178464
647.750 .0178487
648.505 .0178517
649.259 .0178546
650.014 .0178579
650.768 .0178612
651.521 .0178640
652.275 .0178676
653.028 .0178707
653.781 .0178733
654.534 .0178760
655.286 .0178783
656.039 .0178806
656.791 .0178831
657.542 .0178860
658.294 .0178886
659.045 .0178912
659.796 .0178938
660.546 .0178961
661.297 .0178980
662.047 .0179002
662.796 .0179020
663.546 .0179039
664.295 .0179065
665.044 .0179093
665.793 .0179125
666.542 .0179163
667.290 .0179196
668.038 .0179234
668.786 .0179271
669.533 .0179307
670.281 .0179341
671.028 .0179371
671.774 .0179404
672.521 .0179429
673.267 .0179461
674.013 .0179497
674.759 .0179530
675.505 .0179563
676.250 .0179593
676.995 .0179618
677.740 .0179642
678.484 .0179660
679.229 .0179675
679.973 .0179694
680.717 .0179709
681.460 .0179724
682.204 .0179737
682.947 .0179751
683.690 .0179763
684.433 .0179768
685.175 .0179773
685.917 .0179765
686.659 .0179753
687.401 .0179738
688.142 .0179718
688.884 .0179695
689.625 .0179671
690.365 .0179643
691.106 .0179614
691.846 .0179585
692.586 .0179550
693.326 .0179507
694.066 .0179462
694.805 .0179417
695.545 .0179371
696.284 .0179324
697.022 .0179276
697.761 .0179224
698.499 .0179174
699.237 .0179125
699.975 .0179073
700.713 .0179020
701.450 .0178960
702.187 .0178899
702.924 .0178833
703.661 .0178761
704.397 .0178684
705.133 .0178603
705.869 .0178523
706.605 .0178439
707.341 .0178353
708.076 .0178264
708.811 .0178172
709.546 .0178081
710.281 .0177987
711.015 .0177892
711.749 .0177793
712.483 .0177696
713.217 .0177598
713.950 .0177501
714.684 .0177403
715.417 .0177302
716.150 .0177198
716.882 .0177094
717.615 .0176994
718.347 .0176895
719.079 .0176789
719.811 .0176676
720.542 .0176558
721.273 .0176445
722.005 .0176330
722.735 .0176211
723.466 .0176089
724.196 .0175964
724.927 .0175833
725.656 .0175701
726.386 .0175568
727.116 .0175430
727.845 .0175295
728.574 .0175158
729.303 .0175019
730.031 .0174879
730.760 .0174735
731.488 .0174592
732.216 .0174452
732.944 .0174313
733.671 .0174167
734.398 .0174018
735.125 .0173874
735.852 .0173733
736.579 .0173594
737.305 .0173452
738.031 .0173310
738.757 .0173168
739.483 .0173029
740.208 .0172890
740.933 .0172749
741.658 .0172606
742.383 .0172461
743.108 .0172322
743.832 .0172188
744.556 .0172055
745.280 .0171923
746.004 .0171788
746.727 .0171657
747.450 .0171521
748.173 .0171386
748.896 .0171248
749.618 .0171108
750.340 .0170966
751.062 .0170824
751.784 .0170678
752.506 .0170529
753.227 .0170383
753.948 .0170231
754.669 .0170073
755.389 .0169909
756.110 .0169739
756.830 .0169564
757.550 .0169382
758.269 .0169199
758.989 .0169009
759.708 .0168817
760.427 .0168622
761.146 .0168431
761.864 .0168239
762.582 .0168046
763.300 .0167849
764.018 .0167651
764.736 .0167451
765.453 .0167251
766.170 .0167053
766.887 .0166857
767.603 .0166658
768.320 .0166458
769.036 .0166161
769.751 .0165969
770.467 .0165777
771.182 .0165586
771.897 .0165394
772.612 .0165198
773.327 .0165008
774.041 .0164819
774.755 .0164633
775.469 .0164451
776.183 .0164268
776.896 .0164090
777.609 .0163916
778.322 .0163746
779.035 .0163665
779.747 .0163499
780.459 .0163334
781.171 .0163170
781.882 .0163008
782.594 .0162846
783.305 .0162684
784.016 .0162527
784.726 .0162369
785.436 .0162216
786.147 .0162060
786.856 .0161903
787.566 .0161747
788.275 .0161597
788.984 .0161445
789.693 .0161290
790.401 .0161131
791.110 .0160971
791.818 .0160810
792.525 .0160650
793.233 .0160490
793.940 .0160329
794.647 .0160166
795.353 .0159998
796.060 .0159826
796.766 .0159651
797.472 .0159468
798.177 .0159279
798.883 .0159086
799.588 .0158886
800.292 .0158681
800.997 .0158476
801.701 .0158268
802.405 .0158058
803.109 .0157846
803.812 .0157631
804.515 .0157413
805.218 .0157192
805.921 .0156966
806.623 .0156740
807.325 .0156513
808.027 .0156285
808.728 .0156055
809.429 .0155827
810.130 .0155599
810.831 .0155370
811.531 .0155139
812.231 .0154903
812.931 .0154664
813.630 .0154423
814.330 .0154180
815.029 .0153937
815.727 .0153694
816.426 .0153450
817.124 .0153210
817.821 .0152973
818.519 .0152740
819.216 .0152510
819.913 .0152286
820.609 .0152063
821.306 .0151840
822.002 .0151621
822.697 .0151407
823.393 .0151199
824.088 .0150999
824.783 .0150800
825.477 .0150607
826.171 .0150421
826.865 .0150237
827.559 .0150052
828.252 .0149871
828.945 .0149692
829.638 .0149513
830.330 .0149336
831.023 .0149164
831.714 .0148995
832.406 .0148833
833.097 .0148674
833.788 .0148517
834.479 .0148363
835.169 .0148210
835.859 .0148060
836.548 .0147913
837.238 .0147767
837.927 .0147620
838.615 .0147473
839.304 .0147331
839.992 .0147189
840.680 .0147045
841.367 .0146901
842.054 .0146753
842.741 .0146598
843.428 .0146439
844.114 .0146276
844.800 .0146112
845.485 .0145948
846.170 .0145777
846.855 .0145604
847.540 .0145430
848.224 .0145253
848.908 .0145071
849.592 .0144888
850.275 .0144703
850.958 .0144510
851.641 .0144320
852.323 .0144126
853.005 .0143931
853.687 .0143736
854.368 .0143546
855.049 .0143353
855.730 .0143159
856.410 .0142964
857.090 .0142766
857.769 .0142568
858.449 .0142370
859.128 .0142167
859.806 .0141966
860.485 .0141766
861.163 .0141569
861.840 .0141374
862.518 .0141185
863.195 .0140993
863.871 .0140800
864.548 .0140609
865.224 .0140416
865.899 .0140225
866.574 .0140036
867.249 .0139850
867.924 .0139668
868.598 .0139490
869.272 .0139314
869.946 .0139142
870.619 .0138975
871.292 .0138809
871.964 .0138648
872.636 .0138491
873.308 .0138335
873.979 .0138177
874.651 .0138025
875.321 .0137879
875.992 .0137736
876.662 .0137598
877.331 .0137464
878.001 .0137281
878.670 .0137155
879.338 .0137032
880.007 .0136913
880.675 .0136797
881.342 .0136681
882.009 .0136566
882.676 .0136454
883.343 .0136345
884.009 .0136237
884.675 .0136130
885.340 .0136028
886.005 .0135925
886.670 .0135824
887.334 .0135727
887.998 .0135679
888.662 .0135580
889.325 .0135483
889.988 .0135386
890.650 .0135290
891.312 .0135194
891.974 .0135097
892.636 .0134998
893.297 .0134903
893.957 .0134809
894.618 .0134716
895.278 .0134622
895.937 .0134529
896.596 .0134434
897.255 .0134339
897.914 .0134246
898.572 .0134153
899.230 .0134060
899.887 .0133969
900.544 .0133879
901.201 .0133790
901.857 .0133700
902.513 .0133606
903.168 .0133514
903.823 .0133423
904.478 .0133332
905.132 .0133239
905.786 .0133144
906.440 .0133052
907.093 .0132957
907.746 .0132860
908.399 .0132762
909.051 .0132662
909.703 .0132562
910.354 .0132460
911.005 .0132355
911.656 .0132244
912.306 .0132133
912.956 .0132024
913.605 .0131914
914.254 .0131802
914.903 .0131688
915.551 .0131571
916.199 .0131451
916.847 .0131333
917.494 .0131213
918.141 .0131090
918.788 .0130970
919.434 .0130852
920.079 .0130734
920.725 .0130615
921.370 .0130493
922.014 .0130373
922.658 .0130259
923.302 .0130145
923.946 .0130029
924.589 .0129914
925.231 .0129802
925.873 .0129695
926.515 .0129587
927.157 .0129483
927.798 .0129381
928.439 .0129282
929.079 .0129188
929.719 .0129094
930.359 .0129004
930.998 .0128915
931.637 .0128830
932.275 .0128747
932.913 .0128664
933.551 .0128580
934.188 .0128497
934.825 .0128418
935.462 .0128345
936.098 .0128274
936.733 .0128203
937.369 .0128136
938.004 .0128068
938.638 .0127996
939.273 .0127921
939.907 .0127845
940.540 .0127767
941.173 .0127687
941.806 .0127605
942.438 .0127520
943.070 .0127434
943.702 .0127350
944.333 .0127267
944.964 .0127182
945.594 .0127093
946.224 .0127004
946.854 .0126912
947.483 .0126816
948.112 .0126718
948.741 .0126619
949.369 .0126467
949.996 .0126369
950.624 .0126275
951.251 .0126185
951.878 .0126094
952.504 .0126004
953.130 .0125917
953.755 .0125829
954.380 .0125738
955.005 .0125647
955.629 .0125554
956.253 .0125460
956.877 .0125366
957.500 .0125276
958.123 .0125190
958.746 .0125107
959.368 .0125076
959.990 .0125000
960.611 .0124924
961.232 .0124851
961.853 .0124780
962.473 .0124712
963.093 .0124647
963.712 .0124584
964.331 .0124521
964.950 .0124459
965.569 .0124397
966.187 .0124339
966.804 .0124286
967.422 .0124229
968.039 .0124173
968.655 .0124119
969.272 .0124066
969.887 .0124013
970.503 .0123957
971.118 .0123901
971.733 .0123847
972.347 .0123792
972.961 .0123736
973.575 .0123679
974.188 .0123622
974.801 .0123567
975.414 .0123517
976.026 .0123473
976.638 .0123433
977.250 .0123391
977.861 .0123352
978.472 .0123312
979.083 .0123270
979.693 .0123223
980.303 .0123175
980.912 .0123128
981.521 .0123082
982.130 .0123035
982.738 .0122988
983.346 .0122939
983.954 .0122888
984.562 .0122838
985.169 .0122786
985.775 .0122731
986.382 .0122675
986.988 .0122617
987.594 .0122564
988.199 .0122513
988.804 .0122463
989.409 .0122415
990.013 .0122370
990.617 .0122327
991.221 .0122287
991.824 .0122243
992.427 .0122199
993.030 .0122154
993.632 .0122112
994.234 .0122070
994.836 .0122024
995.438 .0121978
996.039 .0121932
996.640 .0121882
997.240 .0121832
997.840 .0121779
998.440 .0121728
999.040 .0121678
999.639 .0121632
1000.238 .0121587
1000.836 .0121545
1001.435 .0121503
1002.033 .0121467
1002.630 .0121434
1003.228 .0121404
1003.825 .0121379
1004.422 .0121356
1005.018 .0121338
1005.614 .0121323
1006.210 .0121309
1006.806 .0121302
1007.401 .0121297
1007.996 .0121296
1008.591 .0121295
1009.186 .0121294
1009.780 .0121293
1010.374 .0121291
1010.967 .0121290
1011.561 .0121289
1012.154 .0121290
1012.746 .0121298
1013.339 .0121305
1013.931 .0121316
1014.523 .0121333
1015.115 .0121351
1015.706 .0121370
1016.298 .0121394
1016.888 .0121421
1017.479 .0121449
1018.069 .0121490
1018.660 .0121518
1019.250 .0121552
1019.839 .0121584
1020.429 .0121616
1021.018 .0121648
1021.607 .0121682
1022.195 .0121712
1022.784 .0121741
1023.372 .0121767
1023.960 .0121790
1024.547 .0121811
1025.135 .0121835
1025.722 .0121856
1026.309 .0121876
1026.896 .0121892
1027.483 .0121911
1028.069 .0121916
1028.655 .0121932
1029.241 .0121942
1029.827 .0121951
1030.412 .0121961
1030.997 .0121968
1031.582 .0121974
1032.167 .0121978
1032.752 .0121983
1033.336 .0121983
1033.921 .0121983
1034.505 .0121978
1035.089 .0121969
1035.672 .0121961
1036.256 .0121948
1036.839 .0121934
1037.422 .0121919
1038.005 .0121909
1038.588 .0121898
1039.171 .0121886
1039.753 .0121871
1040.335 .0121857
1040.918 .0121845
1041.500 .0121835
1042.081 .0121823
1042.663 .0121811
1043.244 .0121803
1043.826 .0121796
1044.407 .0121792
1044.988 .0121795
1045.569 .0121801
1046.150 .0121808
1046.730 .0121813
1047.311 .0121818
1047.891 .0121821
1048.471 .0121823
1049.052 .0121829
1049.632 .0121844
1050.211 .0121856
1050.791 .0121869
1051.371 .0121880
1051.950 .0121896
1052.530 .0121911
1053.109 .0121920
1053.688 .0121932
1054.268 .0121942
1054.847 .0121951
1055.426 .0121957
1056.005 .0121965
1056.583 .0121977
1057.162 .0121994
1057.741 .0122009
1058.319 .0122022
1058.898 .0122034
1059.476 .0122040
1060.055 .0122051
1060.633 .0122064
1061.211 .0122077
1061.790 .0122084
1062.368 .0122091
1062.946 .0122102
1063.524 .0122116
1064.102 .0122129
1064.680 .0122141
1065.258 .0122151
1065.836 .0122154
1066.414 .0122156
1066.992 .0122154
1067.570 .0122154
1068.148 .0122156
1068.726 .0122160
1069.304 .0122167
1069.882 .0122165
1070.460 .0122168
1071.038 .0122168
1071.616 .0122173
1072.194 .0122177
1072.772 .0122183
1073.350 .0122187
1073.928 .0122193
1074.506 .0122197
1075.084 .0122207
1075.662 .0122218
1076.240 .0122240
1076.819 .0122260
1077.397 .0122277
1077.976 .0122288
1078.554 .0122293
1079.133 .0122289
1079.711 .0122289
1080.290 .0122278
1080.869 .0122260
1081.448 .0122244
1082.027 .0122236
1082.606 .0122223
1083.185 .0122212
1083.764 .0122195
1084.343 .0122181
1084.923 .0122164
1085.502 .0122154
1086.082 .0122138
1086.662 .0122126
1087.242 .0122116
1087.822 .0122117
1088.402 .0122114
1088.983 .0122123
1089.563 .0122127
1090.144 .0122141
1090.725 .0122158
1091.306 .0122188
1091.887 .0122220
1092.469 .0122255
1093.050 .0122281
1093.632 .0122310
1094.214 .0122348
1094.796 .0122383
1095.379 .0122405
1095.961 .0122430
1096.544 .0122448
1097.127 .0122470
1097.710 .0122485
1098.294 .0122512
1098.877 .0122542
1099.461 .0122593
1100.046 .0122658
1100.630 .0122733
1101.215 .0122805
1101.800 .0122886
1102.385 .0122973
1102.970 .0123076
1103.556 .0123115
1104.142 .0123232
1104.728 .0123342
1105.315 .0123469
1105.902 .0123599
1106.489 .0123735
1107.077 .0123879
1107.664 .0124042
1108.253 .0124219
1108.841 .0124404
1109.430 .0124571
1110.019 .0124741
1110.609 .0124901
1111.198 .0125073
1111.789 .0125244
1112.379 .0125395
1112.970 .0125551
1113.561 .0125785
1114.153 .0125942
1114.745 .0126108
1115.338 .0126303
1115.931 .0126520
1116.524 .0126766
1117.117 .0127018
1117.712 .0127278
1118.306 .0127540
1118.901 .0127822
1119.496 .0128120
1120.092 .0128420
1120.689 .0128715
1121.285 .0129020
1121.882 .0129322
1122.480 .0129635
1123.078 .0129932
1123.677 .0130241
1124.276 .0130560
1124.875 .0130898
1125.476 .0131241
1126.076 .0131571
1126.677 .0131890
1127.279 .0132227
1127.881 .0132541
1128.484 .0132856
1129.087 .0133171
1129.691 .0133505
1130.295 .0133873
1130.900 .0134236
1131.505 .0134605
1132.111 .0135024
1132.718 .0135487
1133.325 .0135907
1133.933 .0136383
1134.541 .0136793
1135.150 .0137872
1135.760 .0137370
1136.370 .0137315
1136.981 .0138533
1137.592 .0138556
1138.204 .0138931
1138.817 .0138755
1139.431 .0139483
1140.045 .0140398
1140.660 .0140836
1141.275 .0141358
1141.891 .0142486
1142.508 .0144320
1143.126 .0142605
1143.744 .0144417
1144.363 .0142391
1144.983 .0145920
