Measurement Sequence started on: 15-12-46-377
Integration time: 28
Scans to Average: 2 
>>>>>Begin Spectral Data<<<<<
432.689 .0000100
433.621 .0000100
434.552 .0000100
435.482 .0000100
436.410 .0000100
437.337 .0000100
438.262 .0000100
439.187 .0000100
440.110 .0000100
441.031 .0000100
441.952 .0000100
442.871 .0332981
443.789 .0345737
444.705 .0358087
445.621 .0364086
446.535 .0374773
447.447 .0385154
448.359 .0395137
449.269 .0404911
450.178 .0414502
451.086 .0423967
451.993 .0433304
452.898 .0339889
453.803 .0299947
454.706 .0276841
455.608 .0273070
456.508 .0258023
457.408 .0246522
458.306 .0237196
459.204 .0229223
460.100 .0222294
460.995 .0216159
461.888 .0210619
462.781 .0205791
463.673 .0201483
464.563 .0197482
465.452 .0193880
466.340 .0190518
467.228 .0187357
468.114 .0184465
468.999 .0181905
469.882 .0179540
470.765 .0177299
471.647 .0175142
472.528 .0173127
473.407 .0171254
474.286 .0169684
475.163 .0168247
476.040 .0166951
476.915 .0165818
477.790 .0164761
478.663 .0163809
479.535 .0163004
480.407 .0162303
481.277 .0161738
482.147 .0161394
483.015 .0161071
483.883 .0160797
484.749 .0160540
485.615 .0160405
486.479 .0160350
487.343 .0160413
488.206 .0160579
489.067 .0160772
489.928 .0161031
490.788 .0161419
491.647 .0161898
492.505 .0162458
493.362 .0163202
494.218 .0163960
495.073 .0164780
495.928 .0165640
496.781 .0166530
497.634 .0167535
498.486 .0168754
499.337 .0170172
500.187 .0171629
501.036 .0173278
501.884 .0174877
502.731 .0176646
503.578 .0178641
504.424 .0180801
505.268 .0183067
506.113 .0185565
506.956 .0188260
507.798 .0191197
508.640 .0194521
509.480 .0198103
510.320 .0201942
511.160 .0205967
511.998 .0210353
512.836 .0218547
513.672 .0224260
514.508 .0230448
515.344 .0237420
516.178 .0244839
517.012 .0252806
517.845 .0261341
518.677 .0270266
519.508 .0280287
520.339 .0290674
521.169 .0301838
521.998 .0313681
522.826 .0320594
523.654 .0332356
524.481 .0343423
525.307 .0354411
526.133 .0364397
526.958 .0373371
527.782 .0381812
528.605 .0389069
529.428 .0394750
530.250 .0399245
531.072 .0402749
531.892 .0405265
532.712 .0406594
533.532 .0406530
534.350 .0405479
535.168 .0403350
535.986 .0399750
536.802 .0395264
537.618 .0389766
538.434 .0383439
539.249 .0376239
540.063 .0367692
540.876 .0358429
541.689 .0348140
542.501 .0336718
543.313 .0325242
544.124 .0312970
544.934 .0301161
545.744 .0289140
546.553 .0277855
547.361 .0267293
548.169 .0256780
548.976 .0247051
549.783 .0238574
550.589 .0230981
551.395 .0224101
552.200 .0217752
553.004 .0211969
553.808 .0207011
554.611 .0202226
555.414 .0197832
556.216 .0194064
557.018 .0190557
557.819 .0187438
558.619 .0184400
559.419 .0181657
560.218 .0179067
561.017 .0176549
561.815 .0174237
562.613 .0172181
563.410 .0170142
564.207 .0168210
565.003 .0166352
565.799 .0164603
566.594 .0162851
567.388 .0161112
568.182 .0159512
568.976 .0157955
569.769 .0156403
570.562 .0154831
571.354 .0153287
572.145 .0151745
572.936 .0150311
573.727 .0148898
574.517 .0147606
575.307 .0146441
576.096 .0145311
576.885 .0144311
577.673 .0143338
578.461 .0142423
579.248 .0141527
580.035 .0140718
580.821 .0140004
581.607 .0139328
582.392 .0138689
583.177 .0138097
583.962 .0137547
584.746 .0137044
585.529 .0136587
586.313 .0136174
587.095 .0135829
587.878 .0135534
588.660 .0135251
589.441 .0134995
590.222 .0134758
591.003 .0134547
591.783 .0134364
592.563 .0134219
593.342 .0134097
594.121 .0133999
594.899 .0133919
595.678 .0133867
596.455 .0133838
597.233 .0133824
598.009 .0133816
598.786 .0133816
599.562 .0133800
600.338 .0133766
601.113 .0133724
601.888 .0133691
602.663 .0133660
603.437 .0133632
604.211 .0133609
604.984 .0133577
605.757 .0133539
606.530 .0133502
607.302 .0133467
608.074 .0133439
608.845 .0133416
609.616 .0133391
610.387 .0133377
611.158 .0133367
611.928 .0133360
612.697 .0133365
613.467 .0133383
614.236 .0133400
615.004 .0133419
615.773 .0133440
616.541 .0133458
617.308 .0133486
618.076 .0133525
618.843 .0133556
619.609 .0133605
620.375 .0133660
621.141 .0133710
621.907 .0133750
622.672 .0133794
623.437 .0133841
624.202 .0133893
624.966 .0133948
625.730 .0134008
626.493 .0134056
627.257 .0134109
628.020 .0134157
628.782 .0134206
629.545 .0134248
630.307 .0134292
631.068 .0134334
631.830 .0134374
632.591 .0134408
633.352 .0134443
634.112 .0134474
634.872 .0134516
635.632 .0134557
636.392 .0134590
637.151 .0134624
637.910 .0134654
638.668 .0134682
639.427 .0134712
640.185 .0134733
640.943 .0134760
641.700 .0134794
642.457 .0134840
643.214 .0134887
643.971 .0134933
644.727 .0134972
645.483 .0135019
646.239 .0135059
646.994 .0135106
647.750 .0135142
648.505 .0135182
649.259 .0135223
650.014 .0135269
650.768 .0135316
651.521 .0135360
652.275 .0135406
653.028 .0135458
653.781 .0135502
654.534 .0135542
655.286 .0135571
656.039 .0135596
656.791 .0135622
657.542 .0135648
658.294 .0135671
659.045 .0135695
659.796 .0135718
660.546 .0135749
661.297 .0135774
662.047 .0135793
662.796 .0135805
663.546 .0135818
664.295 .0135832
665.044 .0135844
665.793 .0135848
666.542 .0135858
667.290 .0135865
668.038 .0135876
668.786 .0135887
669.533 .0135896
670.281 .0135905
671.028 .0135914
671.774 .0135921
672.521 .0135926
673.267 .0135928
674.013 .0135934
674.759 .0135946
675.505 .0135960
676.250 .0135971
676.995 .0135983
677.740 .0135996
678.484 .0136012
679.229 .0136021
679.973 .0136032
680.717 .0136039
681.460 .0136047
682.204 .0136056
682.947 .0136065
683.690 .0136067
684.433 .0136067
685.175 .0136064
685.917 .0136061
686.659 .0136052
687.401 .0136036
688.142 .0136020
688.884 .0136003
689.625 .0135983
690.365 .0135959
691.106 .0135930
691.846 .0135900
692.586 .0135867
693.326 .0135835
694.066 .0135797
694.805 .0135754
695.545 .0135710
696.284 .0135664
697.022 .0135614
697.761 .0135562
698.499 .0135502
699.237 .0135445
699.975 .0135387
700.713 .0135322
701.450 .0135249
702.187 .0135171
702.924 .0135089
703.661 .0135008
704.397 .0134923
705.133 .0134835
705.869 .0134743
706.605 .0134652
707.341 .0134559
708.076 .0134459
708.811 .0134356
709.546 .0134252
710.281 .0134145
711.015 .0134040
711.749 .0133929
712.483 .0133814
713.217 .0133697
713.950 .0133583
714.684 .0133467
715.417 .0133346
716.150 .0133221
716.882 .0133099
717.615 .0132975
718.347 .0132850
719.079 .0132719
719.811 .0132584
720.542 .0132451
721.273 .0132318
722.005 .0132188
722.735 .0132060
723.466 .0131928
724.196 .0131795
724.927 .0131663
725.656 .0131530
726.386 .0131393
727.116 .0131258
727.845 .0131127
728.574 .0130994
729.303 .0130858
730.031 .0130722
730.760 .0130584
731.488 .0130449
732.216 .0130315
732.944 .0130179
733.671 .0130041
734.398 .0129902
735.125 .0129765
735.852 .0129633
736.579 .0129502
737.305 .0129374
738.031 .0129248
738.757 .0129128
739.483 .0129011
740.208 .0128897
740.933 .0128786
741.658 .0128679
742.383 .0128572
743.108 .0128468
743.832 .0128368
744.556 .0128276
745.280 .0128186
746.004 .0128103
746.727 .0128022
747.450 .0127939
748.173 .0127860
748.896 .0127785
749.618 .0127711
750.340 .0127638
751.062 .0127565
751.784 .0127491
752.506 .0127420
753.227 .0127353
753.948 .0127279
754.669 .0127208
755.389 .0127136
756.110 .0127062
756.830 .0126984
757.550 .0126908
758.269 .0126831
758.989 .0126748
759.708 .0126663
760.427 .0126576
761.146 .0126481
761.864 .0126383
762.582 .0126283
763.300 .0126177
764.018 .0126067
764.736 .0125952
765.453 .0125833
766.170 .0125713
766.887 .0125591
767.603 .0125460
768.320 .0125323
769.036 .0125101
769.751 .0124954
770.467 .0124801
771.182 .0124645
771.897 .0124481
772.612 .0124315
773.327 .0124153
774.041 .0123984
774.755 .0123812
775.469 .0123637
776.183 .0123459
776.896 .0123274
777.609 .0123085
778.322 .0122895
779.035 .0122796
779.747 .0122605
780.459 .0122415
781.171 .0122223
781.882 .0122032
782.594 .0121840
783.305 .0121650
784.016 .0121457
784.726 .0121262
785.436 .0121067
786.147 .0120869
786.856 .0120674
787.566 .0120481
788.275 .0120288
788.984 .0120097
789.693 .0119911
790.401 .0119724
791.110 .0119535
791.818 .0119347
792.525 .0119158
793.233 .0118971
793.940 .0118780
794.647 .0118589
795.353 .0118396
796.060 .0118202
796.766 .0118008
797.472 .0117815
798.177 .0117622
798.883 .0117427
799.588 .0117229
800.292 .0117031
800.997 .0116830
801.701 .0116633
802.405 .0116436
803.109 .0116240
803.812 .0116047
804.515 .0115858
805.218 .0115669
805.921 .0115481
806.623 .0115295
807.325 .0115108
808.027 .0114921
808.728 .0114735
809.429 .0114547
810.130 .0114358
810.831 .0114169
811.531 .0113986
812.231 .0113802
812.931 .0113623
813.630 .0113441
814.330 .0113264
815.029 .0113088
815.727 .0112914
816.426 .0112740
817.124 .0112568
817.821 .0112400
818.519 .0112235
819.216 .0112076
819.913 .0111924
820.609 .0111776
821.306 .0111635
822.002 .0111498
822.697 .0111369
823.393 .0111238
824.088 .0111109
824.783 .0110982
825.477 .0110860
826.171 .0110740
826.865 .0110624
827.559 .0110513
828.252 .0110406
828.945 .0110305
829.638 .0110210
830.330 .0110116
831.023 .0110027
831.714 .0109936
832.406 .0109852
833.097 .0109769
833.788 .0109690
834.479 .0109612
835.169 .0109537
835.859 .0109468
836.548 .0109401
837.238 .0109335
837.927 .0109271
838.615 .0109207
839.304 .0109142
839.992 .0109075
840.680 .0109004
841.367 .0108930
842.054 .0108853
842.741 .0108777
843.428 .0108703
844.114 .0108627
844.800 .0108548
845.485 .0108468
846.170 .0108385
846.855 .0108300
847.540 .0108213
848.224 .0108124
848.908 .0108033
849.592 .0107938
850.275 .0107838
850.958 .0107739
851.641 .0107641
852.323 .0107543
853.005 .0107443
853.687 .0107339
854.368 .0107233
855.049 .0107122
855.730 .0107009
856.410 .0106894
857.090 .0106777
857.769 .0106655
858.449 .0106533
859.128 .0106408
859.806 .0106280
860.485 .0106150
861.163 .0106021
861.840 .0105887
862.518 .0105745
863.195 .0105597
863.871 .0105446
864.548 .0105295
865.224 .0105142
865.899 .0104987
866.574 .0104828
867.249 .0104665
867.924 .0104501
868.598 .0104334
869.272 .0104170
869.946 .0104008
870.619 .0103842
871.292 .0103677
871.964 .0103507
872.636 .0103338
873.308 .0103172
873.979 .0103011
874.651 .0102851
875.321 .0102690
875.992 .0102530
876.662 .0102374
877.331 .0102219
878.001 .0102003
878.670 .0101857
879.338 .0101717
880.007 .0101577
880.675 .0101437
881.342 .0101299
882.009 .0101164
882.676 .0101034
883.343 .0100912
884.009 .0100790
884.675 .0100670
885.340 .0100553
886.005 .0100439
886.670 .0100330
887.334 .0100221
887.998 .0100173
888.662 .0100069
889.325 .0099965
889.988 .0099861
890.650 .0099758
891.312 .0099654
891.974 .0099553
892.636 .0099455
893.297 .0099360
893.957 .0099261
894.618 .0099162
895.278 .0099066
895.937 .0098972
896.596 .0098879
897.255 .0098789
897.914 .0098698
898.572 .0098608
899.230 .0098517
899.887 .0098425
900.544 .0098334
901.201 .0098243
901.857 .0098154
902.513 .0098068
903.168 .0097980
903.823 .0097887
904.478 .0097793
905.132 .0097702
905.786 .0097609
906.440 .0097514
907.093 .0097417
907.746 .0097319
908.399 .0097222
909.051 .0097124
909.703 .0097024
910.354 .0096927
911.005 .0096833
911.656 .0096739
912.306 .0096647
912.956 .0096556
913.605 .0096465
914.254 .0096379
914.903 .0096300
915.551 .0096222
916.199 .0096149
916.847 .0096078
917.494 .0096008
918.141 .0095942
918.788 .0095877
919.434 .0095815
920.079 .0095757
920.725 .0095703
921.370 .0095652
922.014 .0095601
922.658 .0095551
923.302 .0095503
923.946 .0095459
924.589 .0095420
925.231 .0095383
925.873 .0095348
926.515 .0095317
927.157 .0095286
927.798 .0095258
928.439 .0095237
929.079 .0095222
929.719 .0095210
930.359 .0095200
930.998 .0095193
931.637 .0095189
932.275 .0095187
932.913 .0095189
933.551 .0095196
934.188 .0095205
934.825 .0095214
935.462 .0095224
936.098 .0095234
936.733 .0095246
937.369 .0095261
938.004 .0095280
938.638 .0095299
939.273 .0095314
939.907 .0095328
940.540 .0095344
941.173 .0095363
941.806 .0095384
942.438 .0095407
943.070 .0095431
943.702 .0095454
944.333 .0095479
944.964 .0095506
945.594 .0095534
946.224 .0095564
946.854 .0095596
947.483 .0095625
948.112 .0095648
948.741 .0095667
949.369 .0095692
949.996 .0095714
950.624 .0095734
951.251 .0095750
951.878 .0095764
952.504 .0095773
953.130 .0095778
953.755 .0095782
954.380 .0095777
955.005 .0095767
955.629 .0095754
956.253 .0095736
956.877 .0095714
957.500 .0095687
958.123 .0095659
958.746 .0095635
959.368 .0095613
959.990 .0095587
960.611 .0095558
961.232 .0095522
961.853 .0095487
962.473 .0095452
963.093 .0095413
963.712 .0095376
964.331 .0095334
964.950 .0095291
965.569 .0095248
966.187 .0095205
966.804 .0095160
967.422 .0095114
968.039 .0095071
968.655 .0095027
969.272 .0094977
969.887 .0094925
970.503 .0094871
971.118 .0094815
971.733 .0094764
972.347 .0094712
972.961 .0094656
973.575 .0094600
974.188 .0094540
974.801 .0094482
975.414 .0094428
976.026 .0094376
976.638 .0094323
977.250 .0094266
977.861 .0094209
978.472 .0094148
979.083 .0094084
979.693 .0094021
980.303 .0093955
980.912 .0093891
981.521 .0093828
982.130 .0093757
982.738 .0093684
983.346 .0093612
983.954 .0093540
984.562 .0093469
985.169 .0093398
985.775 .0093323
986.382 .0093242
986.988 .0093162
987.594 .0093087
988.199 .0093009
988.804 .0092927
989.409 .0092844
990.013 .0092758
990.617 .0092672
991.221 .0092583
991.824 .0092491
992.427 .0092401
993.030 .0092312
993.632 .0092222
994.234 .0092131
994.836 .0092039
995.438 .0091944
996.039 .0091846
996.640 .0091751
997.240 .0091659
997.840 .0091565
998.440 .0091475
999.040 .0091390
999.639 .0091304
1000.238 .0091222
1000.836 .0091140
1001.435 .0091059
1002.033 .0090983
1002.630 .0090909
1003.228 .0090834
1003.825 .0090759
1004.422 .0090683
1005.018 .0090606
1005.614 .0090531
1006.210 .0090464
1006.806 .0090396
1007.401 .0090326
1007.996 .0090257
1008.591 .0090197
1009.186 .0090139
1009.780 .0090087
1010.374 .0090036
1010.967 .0089989
1011.561 .0089942
1012.154 .0089895
1012.746 .0089852
1013.339 .0089815
1013.931 .0089782
1014.523 .0089757
1015.115 .0089734
1015.706 .0089713
1016.298 .0089691
1016.888 .0089672
1017.479 .0089657
1018.069 .0089636
1018.660 .0089620
1019.250 .0089609
1019.839 .0089596
1020.429 .0089582
1021.018 .0089567
1021.607 .0089557
1022.195 .0089545
1022.784 .0089534
1023.372 .0089525
1023.960 .0089518
1024.547 .0089508
1025.135 .0089499
1025.722 .0089489
1026.309 .0089475
1026.896 .0089464
1027.483 .0089455
1028.069 .0089448
1028.655 .0089438
1029.241 .0089423
1029.827 .0089409
1030.412 .0089398
1030.997 .0089391
1031.582 .0089382
1032.167 .0089373
1032.752 .0089361
1033.336 .0089346
1033.921 .0089327
1034.505 .0089307
1035.089 .0089289
1035.672 .0089273
1036.256 .0089259
1036.839 .0089246
1037.422 .0089232
1038.005 .0089221
1038.588 .0089209
1039.171 .0089197
1039.753 .0089185
1040.335 .0089174
1040.918 .0089168
1041.500 .0089167
1042.081 .0089168
1042.663 .0089173
1043.244 .0089183
1043.826 .0089199
1044.407 .0089220
1044.988 .0089247
1045.569 .0089279
1046.150 .0089312
1046.730 .0089344
1047.311 .0089380
1047.891 .0089415
1048.471 .0089452
1049.052 .0089496
1049.632 .0089548
1050.211 .0089597
1050.791 .0089642
1051.371 .0089687
1051.950 .0089735
1052.530 .0089789
1053.109 .0089839
1053.688 .0089889
1054.268 .0089948
1054.847 .0090008
1055.426 .0090070
1056.005 .0090133
1056.583 .0090202
1057.162 .0090270
1057.741 .0090343
1058.319 .0090413
1058.898 .0090483
1059.476 .0090552
1060.055 .0090624
1060.633 .0090699
1061.211 .0090776
1061.790 .0090854
1062.368 .0090934
1062.946 .0091018
1063.524 .0091100
1064.102 .0091172
1064.680 .0091233
1065.258 .0091296
1065.836 .0091361
1066.414 .0091430
1066.992 .0091500
1067.570 .0091568
1068.148 .0091646
1068.726 .0091725
1069.304 .0091803
1069.882 .0091884
1070.460 .0091976
1071.038 .0092069
1071.616 .0092162
1072.194 .0092249
1072.772 .0092338
1073.350 .0092434
1073.928 .0092533
1074.506 .0092631
1075.084 .0092730
1075.662 .0092824
1076.240 .0092918
1076.819 .0093012
1077.397 .0093104
1077.976 .0093188
1078.554 .0093278
1079.133 .0093360
1079.711 .0093440
1080.290 .0093509
1080.869 .0093574
1081.448 .0093641
1082.027 .0093716
1082.606 .0093781
1083.185 .0093838
1083.764 .0093893
1084.343 .0093961
1084.923 .0094032
1085.502 .0094107
1086.082 .0094180
1086.662 .0094255
1087.242 .0094330
1087.822 .0094408
1088.402 .0094468
1088.983 .0094544
1089.563 .0094621
1090.144 .0094696
1090.725 .0094764
1091.306 .0094817
1091.887 .0094863
1092.469 .0094909
1093.050 .0094956
1093.632 .0095009
1094.214 .0095064
1094.796 .0095117
1095.379 .0095158
1095.961 .0095196
1096.544 .0095235
1097.127 .0095289
1097.710 .0095341
1098.294 .0095411
1098.877 .0095485
1099.461 .0095571
1100.046 .0095655
1100.630 .0095758
1101.215 .0095880
1101.800 .0095998
1102.385 .0096124
1102.970 .0096258
1103.556 .0096307
1104.142 .0096451
1104.728 .0096585
1105.315 .0096723
1105.902 .0096858
1106.489 .0096996
1107.077 .0097131
1107.664 .0097255
1108.253 .0097376
1108.841 .0097504
1109.430 .0097590
1110.019 .0097676
1110.609 .0097768
1111.198 .0097852
1111.789 .0097962
1112.379 .0098083
1112.970 .0098204
1113.561 .0098396
1114.153 .0098517
1114.745 .0098629
1115.338 .0098762
1115.931 .0098902
1116.524 .0099042
1117.117 .0099147
1117.712 .0099265
1118.306 .0099385
1118.901 .0099495
1119.496 .0099614
1120.092 .0099756
1120.689 .0099908
1121.285 .0100053
1121.882 .0100191
1122.480 .0100304
1123.078 .0100419
1123.677 .0100516
1124.276 .0100631
1124.875 .0100760
1125.476 .0100878
1126.076 .0101026
1126.677 .0101194
1127.279 .0101422
1127.881 .0101671
1128.484 .0101961
1129.087 .0102291
1129.691 .0102646
1130.295 .0102990
1130.900 .0103334
1131.505 .0103699
1132.111 .0104109
1132.718 .0104597
1133.325 .0105181
1133.933 .0105771
1134.541 .0106327
1135.150 .0103568
1135.760 .0104786
1136.370 .0105587
1136.981 .0107048
1137.592 .0107840
1138.204 .0109166
1138.817 .0109743
1139.431 .0110845
1140.045 .0110763
1140.660 .0110583
1141.275 .0111592
1141.891 .0113296
1142.508 .0115709
1143.126 .0119132
1143.744 .0119605
1144.363 .0118253
1144.983 .0116747
