Measurement Sequence started on: 15-12-46-377
Integration time: 28
Scans to Average: 2 
>>>>>Begin Spectral Data<<<<<
432.689 .0008918
433.621 .0000100
434.552 .0000100
435.482 .0000100
436.410 .0000100
437.337 .0000100
438.262 .0000100
439.187 .0000100
440.110 .0000100
441.031 .0000100
441.952 .0000100
442.871 .0066134
443.789 .0067905
444.705 .0069494
445.621 .0069132
446.535 .0070517
447.447 .0071958
448.359 .0073483
449.269 .0075053
450.178 .0076733
451.086 .0078563
451.993 .0080275
452.898 .0058384
453.803 .0049572
454.706 .0044504
455.608 .0044205
456.508 .0041906
457.408 .0039865
458.306 .0038557
459.204 .0037408
460.100 .0036507
460.995 .0036136
461.888 .0036151
462.781 .0036032
463.673 .0036040
464.563 .0036187
465.452 .0036347
466.340 .0036508
467.228 .0036590
468.114 .0036609
468.999 .0036576
469.882 .0036504
470.765 .0036320
471.647 .0036014
472.528 .0035801
473.407 .0035566
474.286 .0035417
475.163 .0035344
476.040 .0035190
476.915 .0035037
477.790 .0034841
478.663 .0034596
479.535 .0034345
480.407 .0034108
481.277 .0033878
482.147 .0033773
483.015 .0033679
483.883 .0033544
484.749 .0033418
485.615 .0033316
486.479 .0033257
487.343 .0033252
488.206 .0033273
489.067 .0033223
489.928 .0033156
490.788 .0033115
491.647 .0033045
492.505 .0033022
493.362 .0033035
494.218 .0033122
495.073 .0033185
495.928 .0033205
496.781 .0033236
497.634 .0033345
498.486 .0033504
499.337 .0033663
500.187 .0033886
501.036 .0034220
501.884 .0034525
502.731 .0034814
503.578 .0035316
504.424 .0035814
505.268 .0036295
506.113 .0036938
506.956 .0037555
507.798 .0038051
508.640 .0038397
509.480 .0038797
510.320 .0039269
511.160 .0039623
511.998 .0039915
512.836 .0040136
513.672 .0040265
514.508 .0040257
515.344 .0040320
516.178 .0040494
517.012 .0040467
517.845 .0040580
518.677 .0041007
519.508 .0041601
520.339 .0042141
521.169 .0043177
521.998 .0044770
522.826 .0046381
523.654 .0048044
524.481 .0049954
525.307 .0051631
526.133 .0053493
526.958 .0055579
527.782 .0057288
528.605 .0058412
529.428 .0059194
530.250 .0059935
531.072 .0060959
531.892 .0062006
532.712 .0062975
533.532 .0063708
534.350 .0064621
535.168 .0065519
535.986 .0066195
536.802 .0066617
537.618 .0067137
538.434 .0067390
539.249 .0067456
540.063 .0067282
540.876 .0066966
541.689 .0066197
542.501 .0065088
543.313 .0063731
544.124 .0062175
544.934 .0060206
545.744 .0058459
546.553 .0056341
547.361 .0054008
548.169 .0052128
548.976 .0051042
549.783 .0050360
550.589 .0049669
551.395 .0048858
552.200 .0048134
553.004 .0047458
553.808 .0046960
554.611 .0046319
555.414 .0045823
556.216 .0045486
557.018 .0045282
557.819 .0045114
558.619 .0045071
559.419 .0044912
560.218 .0044788
561.017 .0044738
561.815 .0044603
562.613 .0044275
563.410 .0043965
564.207 .0043738
565.003 .0043690
565.799 .0043668
566.594 .0043714
567.388 .0043783
568.182 .0043891
568.976 .0043970
569.769 .0043978
570.562 .0043950
571.354 .0043890
572.145 .0043783
572.936 .0043727
573.727 .0043728
574.517 .0043762
575.307 .0043799
576.096 .0043880
576.885 .0043986
577.673 .0044140
578.461 .0044280
579.248 .0044455
580.035 .0044641
580.821 .0044828
581.607 .0045028
582.392 .0045260
583.177 .0045545
583.962 .0045875
584.746 .0046230
585.529 .0046633
586.313 .0047057
587.095 .0047484
587.878 .0047911
588.660 .0048355
589.441 .0048783
590.222 .0049223
591.003 .0049661
591.783 .0050087
592.563 .0050527
593.342 .0050967
594.121 .0051405
594.899 .0051841
595.678 .0052277
596.455 .0052707
597.233 .0053117
598.009 .0053528
598.786 .0053931
599.562 .0054329
600.338 .0054727
601.113 .0055129
601.888 .0055526
602.663 .0055927
603.437 .0056318
604.211 .0056707
604.984 .0057094
605.757 .0057479
606.530 .0057857
607.302 .0058230
608.074 .0058595
608.845 .0059120
609.616 .0059481
610.387 .0059844
611.158 .0060203
611.928 .0060556
612.697 .0060902
613.467 .0061247
614.236 .0061582
615.004 .0061905
615.773 .0062225
616.541 .0062551
617.308 .0062872
618.076 .0063195
618.843 .0063349
619.609 .0063677
620.375 .0064012
621.141 .0064343
621.907 .0064672
622.672 .0064995
623.437 .0065312
624.202 .0065631
624.966 .0065951
625.730 .0066272
626.493 .0066590
627.257 .0066906
628.020 .0067223
628.782 .0067545
629.545 .0067865
630.307 .0068181
631.068 .0068491
631.830 .0068795
632.591 .0069091
633.352 .0069382
634.112 .0069676
634.872 .0069969
635.632 .0070262
636.392 .0070549
637.151 .0070832
637.910 .0071112
638.668 .0071389
639.427 .0071663
640.185 .0071930
640.943 .0072189
641.700 .0072450
642.457 .0072711
643.214 .0072969
643.971 .0073226
644.727 .0073470
645.483 .0073715
646.239 .0073956
646.994 .0074198
647.750 .0074439
648.505 .0074680
649.259 .0074920
650.014 .0075161
650.768 .0075401
651.521 .0075640
652.275 .0075881
653.028 .0076128
653.781 .0076370
654.534 .0076605
655.286 .0076837
656.039 .0077067
656.791 .0077303
657.542 .0077542
658.294 .0077781
659.045 .0078018
659.796 .0078247
660.546 .0078476
661.297 .0078701
662.047 .0078919
662.796 .0079130
663.546 .0079338
664.295 .0079547
665.044 .0079760
665.793 .0079967
666.542 .0080171
667.290 .0080376
668.038 .0080580
668.786 .0080782
669.533 .0080981
670.281 .0081180
671.028 .0081371
671.774 .0081560
672.521 .0081749
673.267 .0081937
674.013 .0082127
674.759 .0082320
675.505 .0082513
676.250 .0082703
676.995 .0082886
677.740 .0083061
678.484 .0083231
679.229 .0083403
679.973 .0083574
680.717 .0083740
681.460 .0083902
682.204 .0084059
682.947 .0084213
683.690 .0084363
684.433 .0084507
685.175 .0084646
685.917 .0084777
686.659 .0084902
687.401 .0085019
688.142 .0085129
688.884 .0085233
689.625 .0085333
690.365 .0085428
691.106 .0085523
691.846 .0085612
692.586 .0085693
693.326 .0085766
694.066 .0085837
694.805 .0085899
695.545 .0085958
696.284 .0086018
697.022 .0086072
697.761 .0086127
698.499 .0086178
699.237 .0086222
699.975 .0086263
700.713 .0086301
701.450 .0086333
702.187 .0086364
702.924 .0086389
703.661 .0086409
704.397 .0086424
705.133 .0086436
705.869 .0086447
706.605 .0086452
707.341 .0086455
708.076 .0086454
708.811 .0086446
709.546 .0086436
710.281 .0086416
711.015 .0086392
711.749 .0086366
712.483 .0086338
713.217 .0086306
713.950 .0086271
714.684 .0086231
715.417 .0086188
716.150 .0086141
716.882 .0086091
717.615 .0086036
718.347 .0085977
719.079 .0085915
719.811 .0085849
720.542 .0085779
721.273 .0085708
722.005 .0085630
722.735 .0085553
723.466 .0085473
724.196 .0085390
724.927 .0085304
725.656 .0085213
726.386 .0085121
727.116 .0085024
727.845 .0084927
728.574 .0084827
729.303 .0084720
730.031 .0084614
730.760 .0084506
731.488 .0084396
732.216 .0084281
732.944 .0084162
733.671 .0084039
734.398 .0083915
735.125 .0083790
735.852 .0083662
736.579 .0083532
737.305 .0083403
738.031 .0083274
738.757 .0083146
739.483 .0083018
740.208 .0082886
740.933 .0082751
741.658 .0082619
742.383 .0082485
743.108 .0082351
743.832 .0082215
744.556 .0082080
745.280 .0081947
746.004 .0081815
746.727 .0081681
747.450 .0081544
748.173 .0081406
748.896 .0081267
749.618 .0081122
750.340 .0080973
751.062 .0080820
751.784 .0080664
752.506 .0080508
753.227 .0080352
753.948 .0080190
754.669 .0080025
755.389 .0079855
756.110 .0079681
756.830 .0079504
757.550 .0079322
758.269 .0079135
758.989 .0078943
759.708 .0078752
760.427 .0078557
761.146 .0078358
761.864 .0078158
762.582 .0077957
763.300 .0077755
764.018 .0077548
764.736 .0077337
765.453 .0077122
766.170 .0076907
766.887 .0076687
767.603 .0076464
768.320 .0076240
769.036 .0075895
769.751 .0075667
770.467 .0075438
771.182 .0075208
771.897 .0074976
772.612 .0074741
773.327 .0074504
774.041 .0074263
774.755 .0074020
775.469 .0073775
776.183 .0073526
776.896 .0073276
777.609 .0073027
778.322 .0072776
779.035 .0072646
779.747 .0072394
780.459 .0072141
781.171 .0071886
781.882 .0071627
782.594 .0071366
783.305 .0071103
784.016 .0070836
784.726 .0070567
785.436 .0070298
786.147 .0070029
786.856 .0069763
787.566 .0069501
788.275 .0069238
788.984 .0068976
789.693 .0068716
790.401 .0068453
791.110 .0068190
791.818 .0067927
792.525 .0067663
793.233 .0067398
793.940 .0067134
794.647 .0066870
795.353 .0066608
796.060 .0066348
796.766 .0066093
797.472 .0065837
798.177 .0065577
798.883 .0065315
799.588 .0065051
800.292 .0064786
800.997 .0064522
801.701 .0064258
802.405 .0063993
803.109 .0063727
803.812 .0063463
804.515 .0063202
805.218 .0062942
805.921 .0062683
806.623 .0062424
807.325 .0062160
808.027 .0061894
808.728 .0061626
809.429 .0061357
810.130 .0061085
810.831 .0060812
811.531 .0060538
812.231 .0060265
812.931 .0059991
813.630 .0059713
814.330 .0059438
815.029 .0059162
815.727 .0058885
816.426 .0058606
817.124 .0058324
817.821 .0058039
818.519 .0057756
819.216 .0057473
819.913 .0057189
820.609 .0056907
821.306 .0056626
822.002 .0056342
822.697 .0056062
823.393 .0055781
824.088 .0055499
824.783 .0055217
825.477 .0054937
826.171 .0054655
826.865 .0054374
827.559 .0054094
828.252 .0053815
828.945 .0053540
829.638 .0053268
830.330 .0052999
831.023 .0052734
831.714 .0052471
832.406 .0052207
833.097 .0051947
833.788 .0051694
834.479 .0051442
835.169 .0051192
835.859 .0050947
836.548 .0050702
837.238 .0050457
837.927 .0050216
838.615 .0049976
839.304 .0049739
839.992 .0049507
840.680 .0049273
841.367 .0049040
842.054 .0048811
842.741 .0048582
843.428 .0048355
844.114 .0048130
844.800 .0047905
845.485 .0047681
846.170 .0047458
846.855 .0047236
847.540 .0047015
848.224 .0046798
848.908 .0046580
849.592 .0046363
850.275 .0046148
850.958 .0045934
851.641 .0045722
852.323 .0045512
853.005 .0045303
853.687 .0045091
854.368 .0044883
855.049 .0044674
855.730 .0044466
856.410 .0044260
857.090 .0044055
857.769 .0043850
858.449 .0043648
859.128 .0043445
859.806 .0043242
860.485 .0043043
861.163 .0042846
861.840 .0042649
862.518 .0042451
863.195 .0042253
863.871 .0042056
864.548 .0041861
865.224 .0041666
865.899 .0041471
866.574 .0041277
867.249 .0041083
867.924 .0040890
868.598 .0040697
869.272 .0040504
869.946 .0040311
870.619 .0040118
871.292 .0039923
871.964 .0039726
872.636 .0039530
873.308 .0039333
873.979 .0039137
874.651 .0038942
875.321 .0038745
875.992 .0038548
876.662 .0038352
877.331 .0038156
878.001 .0037864
878.670 .0037671
879.338 .0037478
880.007 .0037285
880.675 .0037092
881.342 .0036903
882.009 .0036717
882.676 .0036534
883.343 .0036354
884.009 .0036175
884.675 .0035999
885.340 .0035827
886.005 .0035656
886.670 .0035491
887.334 .0035328
887.998 .0035259
888.662 .0035102
889.325 .0034949
889.988 .0034799
890.650 .0034653
891.312 .0034512
891.974 .0034375
892.636 .0034243
893.297 .0034118
893.957 .0033995
894.618 .0033878
895.278 .0033766
895.937 .0033658
896.596 .0033556
897.255 .0033458
897.914 .0033364
898.572 .0033274
899.230 .0033188
899.887 .0033104
900.544 .0033022
901.201 .0032944
901.857 .0032868
902.513 .0032795
903.168 .0032725
903.823 .0032658
904.478 .0032592
905.132 .0032526
905.786 .0032458
906.440 .0032392
907.093 .0032324
907.746 .0032257
908.399 .0032191
909.051 .0032126
909.703 .0032059
910.354 .0031994
911.005 .0031929
911.656 .0031864
912.306 .0031800
912.956 .0031736
913.605 .0031669
914.254 .0031601
914.903 .0031531
915.551 .0031458
916.199 .0031387
916.847 .0031317
917.494 .0031246
918.141 .0031174
918.788 .0031101
919.434 .0031027
920.079 .0030951
920.725 .0030876
921.370 .0030801
922.014 .0030725
922.658 .0030649
923.302 .0030571
923.946 .0030490
924.589 .0030409
925.231 .0030329
925.873 .0030253
926.515 .0030178
927.157 .0030102
927.798 .0030027
928.439 .0029953
929.079 .0029876
929.719 .0029799
930.359 .0029724
930.998 .0029650
931.637 .0029577
932.275 .0029504
932.913 .0029430
933.551 .0029355
934.188 .0029279
934.825 .0029205
935.462 .0029132
936.098 .0029058
936.733 .0028982
937.369 .0028903
938.004 .0028825
938.638 .0028747
939.273 .0028670
939.907 .0028596
940.540 .0028522
941.173 .0028447
941.806 .0028371
942.438 .0028291
943.070 .0028210
943.702 .0028127
944.333 .0028047
944.964 .0027967
945.594 .0027885
946.224 .0027803
946.854 .0027720
947.483 .0027636
948.112 .0027554
948.741 .0027471
949.369 .0027345
949.996 .0027265
950.624 .0027182
951.251 .0027099
951.878 .0027017
952.504 .0026936
953.130 .0026859
953.755 .0026785
954.380 .0026711
955.005 .0026640
955.629 .0026568
956.253 .0026497
956.877 .0026430
957.500 .0026362
958.123 .0026296
958.746 .0026231
959.368 .0026207
959.990 .0026143
960.611 .0026078
961.232 .0026015
961.853 .0025956
962.473 .0025900
963.093 .0025844
963.712 .0025792
964.331 .0025739
964.950 .0025688
965.569 .0025639
966.187 .0025592
966.804 .0025547
967.422 .0025502
968.039 .0025458
968.655 .0025415
969.272 .0025373
969.887 .0025332
970.503 .0025292
971.118 .0025254
971.733 .0025219
972.347 .0025182
972.961 .0025144
973.575 .0025107
974.188 .0025070
974.801 .0025034
975.414 .0024997
976.026 .0024963
976.638 .0024930
977.250 .0024898
977.861 .0024867
978.472 .0024838
979.083 .0024810
979.693 .0024781
980.303 .0024753
980.912 .0024724
981.521 .0024695
982.130 .0024664
982.738 .0024636
983.346 .0024610
983.954 .0024584
984.562 .0024559
985.169 .0024534
985.775 .0024509
986.382 .0024483
986.988 .0024460
987.594 .0024440
988.199 .0024421
988.804 .0024403
989.409 .0024388
990.013 .0024372
990.617 .0024358
991.221 .0024345
991.824 .0024334
992.427 .0024327
993.030 .0024319
993.632 .0024311
994.234 .0024304
994.836 .0024297
995.438 .0024291
996.039 .0024285
996.640 .0024281
997.240 .0024275
997.840 .0024269
998.440 .0024264
999.040 .0024260
999.639 .0024251
1000.238 .0024249
1000.836 .0024247
1001.435 .0024248
1002.033 .0024247
1002.630 .0024246
1003.228 .0024246
1003.825 .0024248
1004.422 .0024250
1005.018 .0024254
1005.614 .0024260
1006.210 .0024268
1006.806 .0024274
1007.401 .0024279
1007.996 .0024283
1008.591 .0024287
1009.186 .0024292
1009.780 .0024300
1010.374 .0024304
1010.967 .0024309
1011.561 .0024310
1012.154 .0024310
1012.746 .0024309
1013.339 .0024308
1013.931 .0024306
1014.523 .0024306
1015.115 .0024304
1015.706 .0024301
1016.298 .0024299
1016.888 .0024298
1017.479 .0024298
1018.069 .0024298
1018.660 .0024294
1019.250 .0024296
1019.839 .0024296
1020.429 .0024296
1021.018 .0024295
1021.607 .0024300
1022.195 .0024307
1022.784 .0024313
1023.372 .0024318
1023.960 .0024322
1024.547 .0024323
1025.135 .0024323
1025.722 .0024318
1026.309 .0024314
1026.896 .0024310
1027.483 .0024306
1028.069 .0024299
1028.655 .0024295
1029.241 .0024290
1029.827 .0024280
1030.412 .0024271
1030.997 .0024262
1031.582 .0024251
1032.167 .0024239
1032.752 .0024229
1033.336 .0024221
1033.921 .0024214
1034.505 .0024203
1035.089 .0024198
1035.672 .0024194
1036.256 .0024189
1036.839 .0024185
1037.422 .0024181
1038.005 .0024180
1038.588 .0024179
1039.171 .0024180
1039.753 .0024181
1040.335 .0024179
1040.918 .0024178
1041.500 .0024180
1042.081 .0024178
1042.663 .0024174
1043.244 .0024169
1043.826 .0024165
1044.407 .0024166
1044.988 .0024165
1045.569 .0024168
1046.150 .0024175
1046.730 .0024184
1047.311 .0024194
1047.891 .0024201
1048.471 .0024207
1049.052 .0024213
1049.632 .0024220
1050.211 .0024231
1050.791 .0024241
1051.371 .0024247
1051.950 .0024255
1052.530 .0024264
1053.109 .0024275
1053.688 .0024285
1054.268 .0024289
1054.847 .0024297
1055.426 .0024299
1056.005 .0024300
1056.583 .0024299
1057.162 .0024295
1057.741 .0024291
1058.319 .0024285
1058.898 .0024278
1059.476 .0024274
1060.055 .0024266
1060.633 .0024261
1061.211 .0024258
1061.790 .0024253
1062.368 .0024250
1062.946 .0024244
1063.524 .0024237
1064.102 .0024230
1064.680 .0024218
1065.258 .0024206
1065.836 .0024188
1066.414 .0024170
1066.992 .0024151
1067.570 .0024133
1068.148 .0024119
1068.726 .0024109
1069.304 .0024095
1069.882 .0024080
1070.460 .0024070
1071.038 .0024063
1071.616 .0024062
1072.194 .0024062
1072.772 .0024066
1073.350 .0024071
1073.928 .0024076
1074.506 .0024082
1075.084 .0024088
1075.662 .0024103
1076.240 .0024116
1076.819 .0024132
1077.397 .0024152
1077.976 .0024176
1078.554 .0024203
1079.133 .0024234
1079.711 .0024268
1080.290 .0024300
1080.869 .0024332
1081.448 .0024359
1082.027 .0024387
1082.606 .0024411
1083.185 .0024443
1083.764 .0024483
1084.343 .0024524
1084.923 .0024568
1085.502 .0024615
1086.082 .0024678
1086.662 .0024743
1087.242 .0024804
1087.822 .0024861
1088.402 .0024914
1088.983 .0024972
1089.563 .0025033
1090.144 .0025097
1090.725 .0025153
1091.306 .0025216
1091.887 .0025272
1092.469 .0025331
1093.050 .0025384
1093.632 .0025434
1094.214 .0025484
1094.796 .0025539
1095.379 .0025587
1095.961 .0025626
1096.544 .0025668
1097.127 .0025707
1097.710 .0025747
1098.294 .0025783
1098.877 .0025806
1099.461 .0025820
1100.046 .0025826
1100.630 .0025848
1101.215 .0025866
1101.800 .0025890
1102.385 .0025910
1102.970 .0025928
1103.556 .0025951
1104.142 .0025971
1104.728 .0025999
1105.315 .0026022
1105.902 .0026044
1106.489 .0026047
1107.077 .0026049
1107.664 .0026061
1108.253 .0026083
1108.841 .0026101
1109.430 .0026112
1110.019 .0026129
1110.609 .0026145
1111.198 .0026145
1111.789 .0026138
1112.379 .0026135
1112.970 .0026124
1113.561 .0026122
1114.153 .0026115
1114.745 .0026095
1115.338 .0026069
1115.931 .0026053
1116.524 .0026038
1117.117 .0026024
1117.712 .0026004
1118.306 .0025969
1118.901 .0025942
1119.496 .0025930
1120.092 .0025919
1120.689 .0025886
1121.285 .0025875
1121.882 .0025857
1122.480 .0025850
1123.078 .0025872
1123.677 .0025861
1124.276 .0025845
1124.875 .0025842
1125.476 .0025871
1126.076 .0025911
1126.677 .0025969
1127.279 .0026023
1127.881 .0026100
1128.484 .0026206
1129.087 .0026320
1129.691 .0026448
1130.295 .0026591
1130.900 .0026772
1131.505 .0026957
1132.111 .0027153
1132.718 .0027405
1133.325 .0027662
1133.933 .0027934
1134.541 .0028222
1135.150 .0027222
1135.760 .0027400
1136.370 .0028065
1136.981 .0028123
1137.592 .0029092
1138.204 .0029925
1138.817 .0030144
1139.431 .0030773
1140.045 .0031381
1140.660 .0032011
1141.275 .0032258
1141.891 .0032547
1142.508 .0034314
1143.126 .0034886
1143.744 .0034991
1144.363 .0035249
1144.983 .0033756
