Measurement Sequence started on: 15-12-46-377
Integration time: 28
Scans to Average: 2 
>>>>>Begin Spectral Data<<<<<
432.689 .0000100
433.621 .0000100
434.552 .0000100
435.482 .0000100
436.410 .0000100
437.337 .0000100
438.262 .0000100
439.187 .0000100
440.110 .0000100
441.031 .0000100
441.952 .0000100
442.871 .0254853
443.789 .0264255
444.705 .0273010
445.621 .0276420
446.535 .0283932
447.447 .0291127
448.359 .0297966
449.269 .0304634
450.178 .0311058
451.086 .0317304
451.993 .0323351
452.898 .0249638
453.803 .0217764
454.706 .0197990
455.608 .0194698
456.508 .0182093
457.408 .0172335
458.306 .0164422
459.204 .0157615
460.100 .0151431
460.995 .0146046
461.888 .0141265
462.781 .0136874
463.673 .0132732
464.563 .0129051
465.452 .0125645
466.340 .0122354
467.228 .0119365
468.114 .0116687
468.999 .0114307
469.882 .0112098
470.765 .0110154
471.647 .0108338
472.528 .0106726
473.407 .0105279
474.286 .0104000
475.163 .0102861
476.040 .0101780
476.915 .0100773
477.790 .0099907
478.663 .0099147
479.535 .0098556
480.407 .0098148
481.277 .0097887
482.147 .0097698
483.015 .0097587
483.883 .0097541
484.749 .0097579
485.615 .0097668
486.479 .0097756
487.343 .0097859
488.206 .0097993
489.067 .0098155
489.928 .0098340
490.788 .0098595
491.647 .0098971
492.505 .0099469
493.362 .0100085
494.218 .0100751
495.073 .0101382
495.928 .0102063
496.781 .0102833
497.634 .0103653
498.486 .0104476
499.337 .0105301
500.187 .0106071
501.036 .0106883
501.884 .0107698
502.731 .0108504
503.578 .0109344
504.424 .0110322
505.268 .0111349
506.113 .0112552
506.956 .0113673
507.798 .0114700
508.640 .0115755
509.480 .0117022
510.320 .0118362
511.160 .0119810
511.998 .0121314
512.836 .0124452
513.672 .0126326
514.508 .0128676
515.344 .0131448
516.178 .0134638
517.012 .0138220
517.845 .0142200
518.677 .0146902
519.508 .0151932
520.339 .0157609
521.169 .0164284
521.998 .0171496
522.826 .0176345
523.654 .0183451
524.481 .0190076
525.307 .0196604
526.133 .0202501
526.958 .0208457
527.782 .0214510
528.605 .0220173
529.428 .0225149
530.250 .0229259
531.072 .0232819
531.892 .0235811
532.712 .0237871
533.532 .0239232
534.350 .0240443
535.168 .0240789
535.986 .0240501
536.802 .0239776
537.618 .0238287
538.434 .0236184
539.249 .0233242
540.063 .0229761
540.876 .0225358
541.689 .0219841
542.501 .0213574
543.313 .0207168
544.124 .0200424
544.934 .0193979
545.744 .0187554
546.553 .0181500
547.361 .0175453
548.169 .0169290
548.976 .0163435
549.783 .0157997
550.589 .0153063
551.395 .0148539
552.200 .0144400
553.004 .0140759
553.808 .0137565
554.611 .0134424
555.414 .0131694
556.216 .0129172
557.018 .0126545
557.819 .0124267
558.619 .0122137
559.419 .0120019
560.218 .0118052
561.017 .0116261
561.815 .0114501
562.613 .0112959
563.410 .0111467
564.207 .0110093
565.003 .0108808
565.799 .0107542
566.594 .0106382
567.388 .0105201
568.182 .0104120
568.976 .0103118
569.769 .0102123
570.562 .0101340
571.354 .0100511
572.145 .0099676
572.936 .0098974
573.727 .0098249
574.517 .0097601
575.307 .0096980
576.096 .0096333
576.885 .0095765
577.673 .0095205
578.461 .0094708
579.248 .0094304
580.035 .0093951
580.821 .0093679
581.607 .0093481
582.392 .0093283
583.177 .0093154
583.962 .0093025
584.746 .0092896
585.529 .0092816
586.313 .0092732
587.095 .0092681
587.878 .0092594
588.660 .0092496
589.441 .0092440
590.222 .0092388
591.003 .0092350
591.783 .0092324
592.563 .0092289
593.342 .0092263
594.121 .0092226
594.899 .0092187
595.678 .0092164
596.455 .0092161
597.233 .0092170
598.009 .0092188
598.786 .0092214
599.562 .0092247
600.338 .0092292
601.113 .0092359
601.888 .0092445
602.663 .0092543
603.437 .0092640
604.211 .0092749
604.984 .0092871
605.757 .0092994
606.530 .0093122
607.302 .0093255
608.074 .0093392
608.845 .0093579
609.616 .0093704
610.387 .0093828
611.158 .0093953
611.928 .0094079
612.697 .0094204
613.467 .0094332
614.236 .0094451
615.004 .0094564
615.773 .0094671
616.541 .0094773
617.308 .0094873
618.076 .0094967
618.843 .0095009
619.609 .0095106
620.375 .0095200
621.141 .0095300
621.907 .0095388
622.672 .0095469
623.437 .0095557
624.202 .0095645
624.966 .0095731
625.730 .0095822
626.493 .0095910
627.257 .0096001
628.020 .0096092
628.782 .0096185
629.545 .0096287
630.307 .0096381
631.068 .0096480
631.830 .0096582
632.591 .0096683
633.352 .0096786
634.112 .0096880
634.872 .0096979
635.632 .0097082
636.392 .0097174
637.151 .0097265
637.910 .0097352
638.668 .0097436
639.427 .0097516
640.185 .0097588
640.943 .0097663
641.700 .0097733
642.457 .0097800
643.214 .0097870
643.971 .0097935
644.727 .0097992
645.483 .0098048
646.239 .0098103
646.994 .0098159
647.750 .0098209
648.505 .0098259
649.259 .0098312
650.014 .0098362
650.768 .0098416
651.521 .0098471
652.275 .0098523
653.028 .0098575
653.781 .0098623
654.534 .0098677
655.286 .0098729
656.039 .0098780
656.791 .0098835
657.542 .0098893
658.294 .0098951
659.045 .0099007
659.796 .0099066
660.546 .0099126
661.297 .0099183
662.047 .0099240
662.796 .0099302
663.546 .0099361
664.295 .0099420
665.044 .0099484
665.793 .0099547
666.542 .0099611
667.290 .0099668
668.038 .0099730
668.786 .0099791
669.533 .0099850
670.281 .0099906
671.028 .0099959
671.774 .0100008
672.521 .0100052
673.267 .0100099
674.013 .0100147
674.759 .0100188
675.505 .0100225
676.250 .0100262
676.995 .0100297
677.740 .0100326
678.484 .0100354
679.229 .0100380
679.973 .0100402
680.717 .0100420
681.460 .0100435
682.204 .0100441
682.947 .0100446
683.690 .0100446
684.433 .0100446
685.175 .0100443
685.917 .0100436
686.659 .0100426
687.401 .0100419
688.142 .0100408
688.884 .0100391
689.625 .0100368
690.365 .0100341
691.106 .0100310
691.846 .0100278
692.586 .0100247
693.326 .0100209
694.066 .0100170
694.805 .0100132
695.545 .0100092
696.284 .0100047
697.022 .0100001
697.761 .0099954
698.499 .0099905
699.237 .0099852
699.975 .0099800
700.713 .0099744
701.450 .0099688
702.187 .0099633
702.924 .0099577
703.661 .0099524
704.397 .0099463
705.133 .0099401
705.869 .0099339
706.605 .0099272
707.341 .0099204
708.076 .0099139
708.811 .0099075
709.546 .0099011
710.281 .0098950
711.015 .0098889
711.749 .0098825
712.483 .0098757
713.217 .0098692
713.950 .0098625
714.684 .0098556
715.417 .0098489
716.150 .0098421
716.882 .0098352
717.615 .0098286
718.347 .0098220
719.079 .0098155
719.811 .0098088
720.542 .0098018
721.273 .0097949
722.005 .0097877
722.735 .0097802
723.466 .0097725
724.196 .0097649
724.927 .0097574
725.656 .0097496
726.386 .0097417
727.116 .0097338
727.845 .0097252
728.574 .0097167
729.303 .0097082
730.031 .0096995
730.760 .0096907
731.488 .0096821
732.216 .0096735
732.944 .0096648
733.671 .0096559
734.398 .0096471
735.125 .0096383
735.852 .0096296
736.579 .0096210
737.305 .0096121
738.031 .0096034
738.757 .0095947
739.483 .0095860
740.208 .0095779
740.933 .0095692
741.658 .0095609
742.383 .0095525
743.108 .0095440
743.832 .0095356
744.556 .0095271
745.280 .0095190
746.004 .0095109
746.727 .0095027
747.450 .0094942
748.173 .0094854
748.896 .0094767
749.618 .0094679
750.340 .0094588
751.062 .0094496
751.784 .0094400
752.506 .0094302
753.227 .0094203
753.948 .0094101
754.669 .0093995
755.389 .0093884
756.110 .0093769
756.830 .0093651
757.550 .0093529
758.269 .0093405
758.989 .0093279
759.708 .0093155
760.427 .0093032
761.146 .0092905
761.864 .0092776
762.582 .0092648
763.300 .0092521
764.018 .0092390
764.736 .0092257
765.453 .0092120
766.170 .0091980
766.887 .0091845
767.603 .0091708
768.320 .0091569
769.036 .0091357
769.751 .0091213
770.467 .0091064
771.182 .0090913
771.897 .0090757
772.612 .0090597
773.327 .0090434
774.041 .0090271
774.755 .0090108
775.469 .0089944
776.183 .0089778
776.896 .0089614
777.609 .0089450
778.322 .0089282
779.035 .0089191
779.747 .0089019
780.459 .0088842
781.171 .0088664
781.882 .0088484
782.594 .0088303
783.305 .0088119
784.016 .0087937
784.726 .0087754
785.436 .0087568
786.147 .0087385
786.856 .0087199
787.566 .0087014
788.275 .0086826
788.984 .0086638
789.693 .0086452
790.401 .0086269
791.110 .0086090
791.818 .0085912
792.525 .0085741
793.233 .0085576
793.940 .0085414
794.647 .0085254
795.353 .0085097
796.060 .0084943
796.766 .0084792
797.472 .0084641
798.177 .0084492
798.883 .0084345
799.588 .0084199
800.292 .0084057
800.997 .0083921
801.701 .0083789
802.405 .0083658
803.109 .0083527
803.812 .0083404
804.515 .0083281
805.218 .0083159
805.921 .0083041
806.623 .0082925
807.325 .0082809
808.027 .0082692
808.728 .0082578
809.429 .0082468
810.130 .0082356
810.831 .0082246
811.531 .0082136
812.231 .0082026
812.931 .0081915
813.630 .0081798
814.330 .0081679
815.029 .0081562
815.727 .0081441
816.426 .0081317
817.124 .0081191
817.821 .0081065
818.519 .0080937
819.216 .0080808
819.913 .0080678
820.609 .0080545
821.306 .0080410
822.002 .0080272
822.697 .0080132
823.393 .0079992
824.088 .0079845
824.783 .0079698
825.477 .0079549
826.171 .0079400
826.865 .0079249
827.559 .0079098
828.252 .0078948
828.945 .0078800
829.638 .0078648
830.330 .0078498
831.023 .0078347
831.714 .0078198
832.406 .0078049
833.097 .0077903
833.788 .0077758
834.479 .0077615
835.169 .0077473
835.859 .0077336
836.548 .0077200
837.238 .0077070
837.927 .0076939
838.615 .0076810
839.304 .0076683
839.992 .0076557
840.680 .0076430
841.367 .0076304
842.054 .0076178
842.741 .0076055
843.428 .0075933
844.114 .0075815
844.800 .0075695
845.485 .0075576
846.170 .0075455
846.855 .0075336
847.540 .0075218
848.224 .0075101
848.908 .0074980
849.592 .0074862
850.275 .0074741
850.958 .0074620
851.641 .0074499
852.323 .0074378
853.005 .0074257
853.687 .0074135
854.368 .0074015
855.049 .0073895
855.730 .0073772
856.410 .0073650
857.090 .0073525
857.769 .0073401
858.449 .0073277
859.128 .0073150
859.806 .0073024
860.485 .0072901
861.163 .0072775
861.840 .0072652
862.518 .0072528
863.195 .0072402
863.871 .0072273
864.548 .0072146
865.224 .0072023
865.899 .0071899
866.574 .0071771
867.249 .0071643
867.924 .0071515
868.598 .0071389
869.272 .0071260
869.946 .0071134
870.619 .0071007
871.292 .0070876
871.964 .0070744
872.636 .0070611
873.308 .0070478
873.979 .0070346
874.651 .0070214
875.321 .0070083
875.992 .0069950
876.662 .0069814
877.331 .0069682
878.001 .0069488
878.670 .0069359
879.338 .0069230
880.007 .0069102
880.675 .0068976
881.342 .0068853
882.009 .0068735
882.676 .0068619
883.343 .0068505
884.009 .0068394
884.675 .0068278
885.340 .0068164
886.005 .0068055
886.670 .0067949
887.334 .0067846
887.998 .0067801
888.662 .0067700
889.325 .0067604
889.988 .0067509
890.650 .0067415
891.312 .0067328
891.974 .0067243
892.636 .0067160
893.297 .0067079
893.957 .0066998
894.618 .0066920
895.278 .0066842
895.937 .0066771
896.596 .0066705
897.255 .0066641
897.914 .0066580
898.572 .0066519
899.230 .0066463
899.887 .0066408
900.544 .0066352
901.201 .0066300
901.857 .0066248
902.513 .0066194
903.168 .0066146
903.823 .0066098
904.478 .0066050
905.132 .0066010
905.786 .0065971
906.440 .0065937
907.093 .0065902
907.746 .0065869
908.399 .0065839
909.051 .0065809
909.703 .0065780
910.354 .0065754
911.005 .0065730
911.656 .0065707
912.306 .0065685
912.956 .0065667
913.605 .0065651
914.254 .0065636
914.903 .0065621
915.551 .0065609
916.199 .0065595
916.847 .0065581
917.494 .0065567
918.141 .0065555
918.788 .0065545
919.434 .0065533
920.079 .0065524
920.725 .0065517
921.370 .0065511
922.014 .0065504
922.658 .0065498
923.302 .0065493
923.946 .0065489
924.589 .0065483
925.231 .0065475
925.873 .0065468
926.515 .0065459
927.157 .0065450
927.798 .0065440
928.439 .0065429
929.079 .0065418
929.719 .0065404
930.359 .0065393
930.998 .0065379
931.637 .0065363
932.275 .0065346
932.913 .0065329
933.551 .0065309
934.188 .0065289
934.825 .0065265
935.462 .0065242
936.098 .0065218
936.733 .0065194
937.369 .0065168
938.004 .0065139
938.638 .0065108
939.273 .0065079
939.907 .0065046
940.540 .0065010
941.173 .0064969
941.806 .0064927
942.438 .0064884
943.070 .0064837
943.702 .0064788
944.333 .0064742
944.964 .0064695
945.594 .0064649
946.224 .0064599
946.854 .0064548
947.483 .0064497
948.112 .0064446
948.741 .0064392
949.369 .0064308
949.996 .0064249
950.624 .0064190
951.251 .0064133
951.878 .0064074
952.504 .0064014
953.130 .0063955
953.755 .0063895
954.380 .0063837
955.005 .0063777
955.629 .0063716
956.253 .0063656
956.877 .0063596
957.500 .0063532
958.123 .0063470
958.746 .0063409
959.368 .0063380
959.990 .0063321
960.611 .0063264
961.232 .0063211
961.853 .0063157
962.473 .0063106
963.093 .0063053
963.712 .0063001
964.331 .0062947
964.950 .0062891
965.569 .0062832
966.187 .0062775
966.804 .0062718
967.422 .0062657
968.039 .0062598
968.655 .0062541
969.272 .0062482
969.887 .0062426
970.503 .0062370
971.118 .0062312
971.733 .0062254
972.347 .0062199
972.961 .0062145
973.575 .0062091
974.188 .0062038
974.801 .0061985
975.414 .0061934
976.026 .0061885
976.638 .0061835
977.250 .0061787
977.861 .0061745
978.472 .0061702
979.083 .0061656
979.693 .0061611
980.303 .0061566
980.912 .0061519
981.521 .0061474
982.130 .0061430
982.738 .0061384
983.346 .0061335
983.954 .0061287
984.562 .0061243
985.169 .0061200
985.775 .0061158
986.382 .0061117
986.988 .0061077
987.594 .0061041
988.199 .0061002
988.804 .0060963
989.409 .0060927
990.013 .0060889
990.617 .0060853
991.221 .0060822
991.824 .0060792
992.427 .0060761
993.030 .0060730
993.632 .0060700
994.234 .0060674
994.836 .0060643
995.438 .0060613
996.039 .0060582
996.640 .0060551
997.240 .0060518
997.840 .0060481
998.440 .0060443
999.040 .0060406
999.639 .0060371
1000.238 .0060336
1000.836 .0060305
1001.435 .0060270
1002.033 .0060232
1002.630 .0060193
1003.228 .0060159
1003.825 .0060126
1004.422 .0060093
1005.018 .0060063
1005.614 .0060035
1006.210 .0060008
1006.806 .0059983
1007.401 .0059956
1007.996 .0059933
1008.591 .0059914
1009.186 .0059898
1009.780 .0059885
1010.374 .0059874
1010.967 .0059860
1011.561 .0059851
1012.154 .0059842
1012.746 .0059838
1013.339 .0059833
1013.931 .0059827
1014.523 .0059822
1015.115 .0059817
1015.706 .0059813
1016.298 .0059813
1016.888 .0059816
1017.479 .0059824
1018.069 .0059849
1018.660 .0059861
1019.250 .0059869
1019.839 .0059880
1020.429 .0059885
1021.018 .0059895
1021.607 .0059910
1022.195 .0059929
1022.784 .0059949
1023.372 .0059972
1023.960 .0059995
1024.547 .0060016
1025.135 .0060036
1025.722 .0060056
1026.309 .0060076
1026.896 .0060101
1027.483 .0060121
1028.069 .0060125
1028.655 .0060142
1029.241 .0060159
1029.827 .0060178
1030.412 .0060197
1030.997 .0060216
1031.582 .0060230
1032.167 .0060239
1032.752 .0060244
1033.336 .0060249
1033.921 .0060259
1034.505 .0060272
1035.089 .0060286
1035.672 .0060302
1036.256 .0060317
1036.839 .0060330
1037.422 .0060348
1038.005 .0060364
1038.588 .0060385
1039.171 .0060404
1039.753 .0060426
1040.335 .0060451
1040.918 .0060481
1041.500 .0060513
1042.081 .0060551
1042.663 .0060589
1043.244 .0060624
1043.826 .0060653
1044.407 .0060680
1044.988 .0060711
1045.569 .0060742
1046.150 .0060777
1046.730 .0060811
1047.311 .0060840
1047.891 .0060876
1048.471 .0060917
1049.052 .0060960
1049.632 .0061001
1050.211 .0061039
1050.791 .0061074
1051.371 .0061104
1051.950 .0061139
1052.530 .0061180
1053.109 .0061229
1053.688 .0061283
1054.268 .0061339
1054.847 .0061396
1055.426 .0061454
1056.005 .0061512
1056.583 .0061577
1057.162 .0061644
1057.741 .0061707
1058.319 .0061765
1058.898 .0061823
1059.476 .0061884
1060.055 .0061949
1060.633 .0062011
1061.211 .0062079
1061.790 .0062139
1062.368 .0062193
1062.946 .0062246
1063.524 .0062299
1064.102 .0062354
1064.680 .0062411
1065.258 .0062469
1065.836 .0062529
1066.414 .0062581
1066.992 .0062640
1067.570 .0062698
1068.148 .0062756
1068.726 .0062806
1069.304 .0062860
1069.882 .0062913
1070.460 .0062975
1071.038 .0063038
1071.616 .0063107
1072.194 .0063175
1072.772 .0063246
1073.350 .0063311
1073.928 .0063369
1074.506 .0063426
1075.084 .0063481
1075.662 .0063530
1076.240 .0063579
1076.819 .0063620
1077.397 .0063661
1077.976 .0063704
1078.554 .0063750
1079.133 .0063788
1079.711 .0063826
1080.290 .0063857
1080.869 .0063889
1081.448 .0063917
1082.027 .0063946
1082.606 .0063967
1083.185 .0063989
1083.764 .0064021
1084.343 .0064052
1084.923 .0064087
1085.502 .0064113
1086.082 .0064136
1086.662 .0064164
1087.242 .0064191
1087.822 .0064217
1088.402 .0064242
1088.983 .0064271
1089.563 .0064297
1090.144 .0064323
1090.725 .0064344
1091.306 .0064367
1091.887 .0064388
1092.469 .0064410
1093.050 .0064425
1093.632 .0064439
1094.214 .0064461
1094.796 .0064471
1095.379 .0064482
1095.961 .0064503
1096.544 .0064520
1097.127 .0064537
1097.710 .0064560
1098.294 .0064587
1098.877 .0064613
1099.461 .0064642
1100.046 .0064672
1100.630 .0064712
1101.215 .0064741
1101.800 .0064771
1102.385 .0064801
1102.970 .0064847
1103.556 .0064868
1104.142 .0064910
1104.728 .0064949
1105.315 .0064990
1105.902 .0065059
1106.489 .0065117
1107.077 .0065188
1107.664 .0065260
1108.253 .0065334
1108.841 .0065404
1109.430 .0065481
1110.019 .0065550
1110.609 .0065628
1111.198 .0065689
1111.789 .0065760
1112.379 .0065835
1112.970 .0065910
1113.561 .0066018
1114.153 .0066066
1114.745 .0066122
1115.338 .0066166
1115.931 .0066192
1116.524 .0066224
1117.117 .0066233
1117.712 .0066223
1118.306 .0066203
1118.901 .0066188
1119.496 .0066159
1120.092 .0066129
1120.689 .0066096
1121.285 .0066090
1121.882 .0066091
1122.480 .0066098
1123.078 .0066094
1123.677 .0066092
1124.276 .0066099
1124.875 .0066110
1125.476 .0066119
1126.076 .0066161
1126.677 .0066202
1127.279 .0066277
1127.881 .0066381
1128.484 .0066496
1129.087 .0066640
1129.691 .0066840
1130.295 .0067074
1130.900 .0067315
1131.505 .0067556
1132.111 .0067831
1132.718 .0068175
1133.325 .0068598
1133.933 .0069107
1134.541 .0069658
1135.150 .0066947
1135.760 .0067686
1136.370 .0068067
1136.981 .0069368
1137.592 .0070380
1138.204 .0070595
1138.817 .0071826
1139.431 .0073494
1140.045 .0074940
1140.660 .0074760
1141.275 .0075104
1141.891 .0076405
1142.508 .0078769
1143.126 .0081134
1143.744 .0083342
1144.363 .0084756
1144.983 .0087071
