Measurement Sequence started on: 15-12-46-377
Integration time: 28
Scans to Average: 2 
>>>>>Begin Spectral Data<<<<<
432.689 .0000100
433.621 .0000100
434.552 .0000100
435.482 .0000100
436.410 .0000100
437.337 .0000100
438.262 .0000100
439.187 .0000100
440.110 .0000100
441.031 .0000100
441.952 .0000100
442.871 .0069033
443.789 .0071301
444.705 .0073518
445.621 .0074269
446.535 .0076413
447.447 .0078509
448.359 .0080638
449.269 .0082673
450.178 .0084669
451.086 .0086769
451.993 .0088800
452.898 .0070052
453.803 .0061542
454.706 .0056923
455.608 .0056301
456.508 .0053852
457.408 .0051548
458.306 .0049501
459.204 .0047482
460.100 .0046175
460.995 .0045311
461.888 .0044423
462.781 .0043695
463.673 .0043158
464.563 .0042645
465.452 .0042184
466.340 .0041616
467.228 .0040953
468.114 .0040322
468.999 .0039673
469.882 .0039156
470.765 .0038653
471.647 .0038032
472.528 .0037477
473.407 .0036896
474.286 .0036458
475.163 .0036037
476.040 .0035655
476.915 .0035234
477.790 .0034835
478.663 .0034545
479.535 .0034293
480.407 .0034117
481.277 .0034000
482.147 .0033999
483.015 .0033948
483.883 .0033962
484.749 .0034001
485.615 .0034127
486.479 .0034299
487.343 .0034516
488.206 .0034775
489.067 .0035014
489.928 .0035202
490.788 .0035402
491.647 .0035582
492.505 .0035752
493.362 .0035933
494.218 .0036039
495.073 .0036189
495.928 .0036440
496.781 .0036660
497.634 .0036953
498.486 .0037215
499.337 .0037472
500.187 .0037653
501.036 .0037885
501.884 .0038008
502.731 .0038238
503.578 .0038546
504.424 .0038997
505.268 .0039468
506.113 .0040110
506.956 .0040823
507.798 .0041433
508.640 .0042170
509.480 .0042904
510.320 .0043505
511.160 .0044182
511.998 .0044951
512.836 .0046427
513.672 .0047380
514.508 .0048398
515.344 .0049640
516.178 .0050707
517.012 .0051946
517.845 .0053197
518.677 .0054864
519.508 .0056787
520.339 .0059167
521.169 .0062143
521.998 .0065583
522.826 .0068239
523.654 .0072389
524.481 .0076149
525.307 .0079152
526.133 .0081304
526.958 .0083448
527.782 .0085337
528.605 .0086803
529.428 .0087619
530.250 .0088285
531.072 .0088562
531.892 .0088403
532.712 .0087860
533.532 .0087464
534.350 .0086833
535.168 .0086249
535.986 .0085306
536.802 .0084523
537.618 .0083543
538.434 .0082482
539.249 .0081320
540.063 .0080013
540.876 .0078350
541.689 .0076291
542.501 .0073729
543.313 .0070896
544.124 .0067511
544.934 .0064298
545.744 .0061782
546.553 .0060029
547.361 .0058108
548.169 .0056488
548.976 .0055133
549.783 .0054443
550.589 .0053958
551.395 .0053827
552.200 .0054087
553.004 .0054407
553.808 .0054681
554.611 .0055160
555.414 .0055462
556.216 .0055762
557.018 .0056067
557.819 .0056368
558.619 .0056682
559.419 .0056659
560.218 .0056461
561.017 .0056196
561.815 .0055755
562.613 .0055237
563.410 .0054655
564.207 .0054054
565.003 .0053540
565.799 .0052996
566.594 .0052406
567.388 .0051878
568.182 .0051341
568.976 .0050844
569.769 .0050342
570.562 .0049912
571.354 .0049497
572.145 .0049074
572.936 .0048768
573.727 .0048476
574.517 .0048221
575.307 .0048031
576.096 .0047892
576.885 .0047791
577.673 .0047703
578.461 .0047638
579.248 .0047646
580.035 .0047827
580.821 .0048005
581.607 .0048294
582.392 .0048684
583.177 .0049142
583.962 .0049634
584.746 .0050155
585.529 .0050727
586.313 .0051357
587.095 .0052043
587.878 .0052792
588.660 .0053584
589.441 .0054408
590.222 .0055273
591.003 .0056157
591.783 .0057052
592.563 .0057955
593.342 .0058844
594.121 .0059740
594.899 .0060622
595.678 .0061490
596.455 .0062361
597.233 .0063222
598.009 .0064085
598.786 .0064938
599.562 .0065782
600.338 .0066626
601.113 .0067446
601.888 .0068245
602.663 .0069024
603.437 .0069788
604.211 .0070546
604.984 .0071295
605.757 .0072025
606.530 .0072744
607.302 .0073453
608.074 .0074150
608.845 .0075157
609.616 .0075830
610.387 .0076496
611.158 .0077153
611.928 .0077800
612.697 .0078441
613.467 .0079075
614.236 .0079703
615.004 .0080329
615.773 .0080944
616.541 .0081554
617.308 .0082154
618.076 .0082747
618.843 .0083027
619.609 .0083614
620.375 .0084199
621.141 .0084778
621.907 .0085351
622.672 .0085921
623.437 .0086476
624.202 .0087024
624.966 .0087567
625.730 .0088102
626.493 .0088625
627.257 .0089143
628.020 .0089658
628.782 .0090167
629.545 .0090673
630.307 .0091174
631.068 .0091669
631.830 .0092157
632.591 .0092641
633.352 .0093117
634.112 .0093591
634.872 .0094061
635.632 .0094526
636.392 .0094998
637.151 .0095469
637.910 .0095936
638.668 .0096402
639.427 .0096867
640.185 .0097323
640.943 .0097772
641.700 .0098218
642.457 .0098661
643.214 .0099102
643.971 .0099548
644.727 .0099984
645.483 .0100413
646.239 .0100847
646.994 .0101279
647.750 .0101707
648.505 .0102128
649.259 .0102539
650.014 .0102943
650.768 .0103344
651.521 .0103738
652.275 .0104130
653.028 .0104525
653.781 .0104919
654.534 .0105302
655.286 .0105681
656.039 .0106052
656.791 .0106408
657.542 .0106767
658.294 .0107124
659.045 .0107469
659.796 .0107807
660.546 .0108145
661.297 .0108485
662.047 .0108822
662.796 .0109159
663.546 .0109489
664.295 .0109817
665.044 .0110148
665.793 .0110474
666.542 .0110791
667.290 .0111109
668.038 .0111425
668.786 .0111746
669.533 .0112066
670.281 .0112383
671.028 .0112694
671.774 .0113003
672.521 .0113306
673.267 .0113598
674.013 .0113885
674.759 .0114168
675.505 .0114446
676.250 .0114720
676.995 .0114993
677.740 .0115252
678.484 .0115506
679.229 .0115758
679.973 .0116003
680.717 .0116237
681.460 .0116458
682.204 .0116677
682.947 .0116892
683.690 .0117100
684.433 .0117299
685.175 .0117493
685.917 .0117686
686.659 .0117874
687.401 .0118054
688.142 .0118226
688.884 .0118390
689.625 .0118547
690.365 .0118702
691.106 .0118851
691.846 .0118996
692.586 .0119138
693.326 .0119278
694.066 .0119412
694.805 .0119539
695.545 .0119660
696.284 .0119778
697.022 .0119889
697.761 .0119996
698.499 .0120098
699.237 .0120195
699.975 .0120287
700.713 .0120379
701.450 .0120464
702.187 .0120541
702.924 .0120608
703.661 .0120671
704.397 .0120727
705.133 .0120773
705.869 .0120813
706.605 .0120847
707.341 .0120868
708.076 .0120882
708.811 .0120887
709.546 .0120892
710.281 .0120888
711.015 .0120875
711.749 .0120853
712.483 .0120824
713.217 .0120787
713.950 .0120745
714.684 .0120697
715.417 .0120644
716.150 .0120584
716.882 .0120519
717.615 .0120447
718.347 .0120365
719.079 .0120274
719.811 .0120182
720.542 .0120081
721.273 .0119977
722.005 .0119858
722.735 .0119737
723.466 .0119611
724.196 .0119476
724.927 .0119336
725.656 .0119186
726.386 .0119031
727.116 .0118873
727.845 .0118712
728.574 .0118544
729.303 .0118369
730.031 .0118192
730.760 .0118013
731.488 .0117832
732.216 .0117645
732.944 .0117454
733.671 .0117258
734.398 .0117061
735.125 .0116861
735.852 .0116656
736.579 .0116452
737.305 .0116248
738.031 .0116046
738.757 .0115844
739.483 .0115637
740.208 .0115428
740.933 .0115214
741.658 .0115002
742.383 .0114785
743.108 .0114566
743.832 .0114348
744.556 .0114128
745.280 .0113909
746.004 .0113687
746.727 .0113467
747.450 .0113246
748.173 .0113023
748.896 .0112798
749.618 .0112568
750.340 .0112333
751.062 .0112096
751.784 .0111855
752.506 .0111612
753.227 .0111368
753.948 .0111119
754.669 .0110869
755.389 .0110617
756.110 .0110362
756.830 .0110102
757.550 .0109837
758.269 .0109569
758.989 .0109296
759.708 .0109017
760.427 .0108736
761.146 .0108454
761.864 .0108168
762.582 .0107879
763.300 .0107587
764.018 .0107293
764.736 .0106996
765.453 .0106699
766.170 .0106397
766.887 .0106091
767.603 .0105782
768.320 .0105466
769.036 .0104979
769.751 .0104658
770.467 .0104332
771.182 .0104006
771.897 .0103677
772.612 .0103345
773.327 .0103011
774.041 .0102672
774.755 .0102331
775.469 .0101986
776.183 .0101637
776.896 .0101287
777.609 .0100934
778.322 .0100580
779.035 .0100398
779.747 .0100043
780.459 .0099686
781.171 .0099326
781.882 .0098969
782.594 .0098607
783.305 .0098242
784.016 .0097875
784.726 .0097504
785.436 .0097134
786.147 .0096760
786.856 .0096387
787.566 .0096012
788.275 .0095639
788.984 .0095268
789.693 .0094895
790.401 .0094520
791.110 .0094145
791.818 .0093767
792.525 .0093388
793.233 .0093011
793.940 .0092633
794.647 .0092253
795.353 .0091874
796.060 .0091496
796.766 .0091119
797.472 .0090742
798.177 .0090362
798.883 .0089976
799.588 .0089591
800.292 .0089204
800.997 .0088813
801.701 .0088425
802.405 .0088033
803.109 .0087643
803.812 .0087256
804.515 .0086870
805.218 .0086484
805.921 .0086095
806.623 .0085708
807.325 .0085316
808.027 .0084922
808.728 .0084525
809.429 .0084126
810.130 .0083728
810.831 .0083332
811.531 .0082936
812.231 .0082541
812.931 .0082146
813.630 .0081748
814.330 .0081347
815.029 .0080944
815.727 .0080535
816.426 .0080125
817.124 .0079713
817.821 .0079303
818.519 .0078894
819.216 .0078489
819.913 .0078085
820.609 .0077682
821.306 .0077279
822.002 .0076875
822.697 .0076471
823.393 .0076063
824.088 .0075654
824.783 .0075244
825.477 .0074838
826.171 .0074435
826.865 .0074035
827.559 .0073640
828.252 .0073250
828.945 .0072864
829.638 .0072478
830.330 .0072095
831.023 .0071713
831.714 .0071333
832.406 .0070956
833.097 .0070581
833.788 .0070213
834.479 .0069851
835.169 .0069494
835.859 .0069145
836.548 .0068799
837.238 .0068454
837.927 .0068113
838.615 .0067774
839.304 .0067436
839.992 .0067102
840.680 .0066767
841.367 .0066437
842.054 .0066108
842.741 .0065783
843.428 .0065462
844.114 .0065146
844.800 .0064832
845.485 .0064519
846.170 .0064205
846.855 .0063892
847.540 .0063579
848.224 .0063268
848.908 .0062957
849.592 .0062646
850.275 .0062337
850.958 .0062028
851.641 .0061719
852.323 .0061414
853.005 .0061108
853.687 .0060801
854.368 .0060496
855.049 .0060191
855.730 .0059884
856.410 .0059577
857.090 .0059268
857.769 .0058959
858.449 .0058652
859.128 .0058347
859.806 .0058043
860.485 .0057742
861.163 .0057443
861.840 .0057143
862.518 .0056846
863.195 .0056550
863.871 .0056255
864.548 .0055961
865.224 .0055668
865.899 .0055375
866.574 .0055086
867.249 .0054796
867.924 .0054509
868.598 .0054226
869.272 .0053945
869.946 .0053663
870.619 .0053384
871.292 .0053105
871.964 .0052826
872.636 .0052548
873.308 .0052272
873.979 .0051996
874.651 .0051721
875.321 .0051449
875.992 .0051180
876.662 .0050914
877.331 .0050650
878.001 .0050258
878.670 .0049998
879.338 .0049742
880.007 .0049492
880.675 .0049244
881.342 .0049000
882.009 .0048759
882.676 .0048520
883.343 .0048287
884.009 .0048056
884.675 .0047828
885.340 .0047606
886.005 .0047385
886.670 .0047170
887.334 .0046958
887.998 .0046867
888.662 .0046663
889.325 .0046463
889.988 .0046268
890.650 .0046075
891.312 .0045887
891.974 .0045700
892.636 .0045516
893.297 .0045340
893.957 .0045167
894.618 .0044998
895.278 .0044835
895.937 .0044677
896.596 .0044522
897.255 .0044371
897.914 .0044224
898.572 .0044081
899.230 .0043942
899.887 .0043804
900.544 .0043666
901.201 .0043530
901.857 .0043397
902.513 .0043266
903.168 .0043140
903.823 .0043013
904.478 .0042890
905.132 .0042769
905.786 .0042651
906.440 .0042534
907.093 .0042418
907.746 .0042304
908.399 .0042193
909.051 .0042081
909.703 .0041970
910.354 .0041859
911.005 .0041750
911.656 .0041644
912.306 .0041542
912.956 .0041441
913.605 .0041339
914.254 .0041236
914.903 .0041136
915.551 .0041034
916.199 .0040929
916.847 .0040826
917.494 .0040722
918.141 .0040619
918.788 .0040516
919.434 .0040413
920.079 .0040310
920.725 .0040209
921.370 .0040109
922.014 .0040009
922.658 .0039909
923.302 .0039807
923.946 .0039705
924.589 .0039602
925.231 .0039501
925.873 .0039396
926.515 .0039293
927.157 .0039191
927.798 .0039088
928.439 .0038985
929.079 .0038881
929.719 .0038776
930.359 .0038672
930.998 .0038569
931.637 .0038465
932.275 .0038360
932.913 .0038256
933.551 .0038151
934.188 .0038045
934.825 .0037938
935.462 .0037831
936.098 .0037722
936.733 .0037614
937.369 .0037507
938.004 .0037398
938.638 .0037286
939.273 .0037173
939.907 .0037059
940.540 .0036944
941.173 .0036826
941.806 .0036706
942.438 .0036585
943.070 .0036464
943.702 .0036342
944.333 .0036220
944.964 .0036096
945.594 .0035973
946.224 .0035850
946.854 .0035726
947.483 .0035598
948.112 .0035472
948.741 .0035346
949.369 .0035164
949.996 .0035043
950.624 .0034922
951.251 .0034801
951.878 .0034679
952.504 .0034556
953.130 .0034434
953.755 .0034314
954.380 .0034195
955.005 .0034080
955.629 .0033968
956.253 .0033859
956.877 .0033752
957.500 .0033648
958.123 .0033546
958.746 .0033446
959.368 .0033405
959.990 .0033309
960.611 .0033216
961.232 .0033126
961.853 .0033043
962.473 .0032964
963.093 .0032885
963.712 .0032811
964.331 .0032739
964.950 .0032667
965.569 .0032594
966.187 .0032523
966.804 .0032452
967.422 .0032382
968.039 .0032315
968.655 .0032250
969.272 .0032184
969.887 .0032120
970.503 .0032057
971.118 .0031993
971.733 .0031930
972.347 .0031868
972.961 .0031810
973.575 .0031753
974.188 .0031697
974.801 .0031644
975.414 .0031591
976.026 .0031543
976.638 .0031495
977.250 .0031450
977.861 .0031409
978.472 .0031369
979.083 .0031329
979.693 .0031290
980.303 .0031251
980.912 .0031214
981.521 .0031180
982.130 .0031146
982.738 .0031112
983.346 .0031079
983.954 .0031046
984.562 .0031014
985.169 .0030985
985.775 .0030961
986.382 .0030932
986.988 .0030907
987.594 .0030885
988.199 .0030862
988.804 .0030841
989.409 .0030825
990.013 .0030812
990.617 .0030801
991.221 .0030792
991.824 .0030783
992.427 .0030777
993.030 .0030769
993.632 .0030762
994.234 .0030755
994.836 .0030747
995.438 .0030739
996.039 .0030727
996.640 .0030717
997.240 .0030705
997.840 .0030692
998.440 .0030682
999.040 .0030675
999.639 .0030667
1000.238 .0030661
1000.836 .0030650
1001.435 .0030636
1002.033 .0030620
1002.630 .0030606
1003.228 .0030594
1003.825 .0030585
1004.422 .0030576
1005.018 .0030571
1005.614 .0030565
1006.210 .0030564
1006.806 .0030566
1007.401 .0030567
1007.996 .0030569
1008.591 .0030570
1009.186 .0030570
1009.780 .0030571
1010.374 .0030567
1010.967 .0030569
1011.561 .0030574
1012.154 .0030582
1012.746 .0030589
1013.339 .0030600
1013.931 .0030610
1014.523 .0030624
1015.115 .0030635
1015.706 .0030648
1016.298 .0030664
1016.888 .0030681
1017.479 .0030698
1018.069 .0030723
1018.660 .0030736
1019.250 .0030753
1019.839 .0030769
1020.429 .0030791
1021.018 .0030814
1021.607 .0030836
1022.195 .0030856
1022.784 .0030873
1023.372 .0030889
1023.960 .0030908
1024.547 .0030927
1025.135 .0030945
1025.722 .0030961
1026.309 .0030971
1026.896 .0030984
1027.483 .0030998
1028.069 .0031002
1028.655 .0031014
1029.241 .0031023
1029.827 .0031028
1030.412 .0031035
1030.997 .0031042
1031.582 .0031045
1032.167 .0031048
1032.752 .0031052
1033.336 .0031054
1033.921 .0031053
1034.505 .0031052
1035.089 .0031051
1035.672 .0031050
1036.256 .0031046
1036.839 .0031042
1037.422 .0031036
1038.005 .0031031
1038.588 .0031028
1039.171 .0031022
1039.753 .0031017
1040.335 .0031008
1040.918 .0030996
1041.500 .0030986
1042.081 .0030976
1042.663 .0030967
1043.244 .0030964
1043.826 .0030962
1044.407 .0030956
1044.988 .0030946
1045.569 .0030937
1046.150 .0030933
1046.730 .0030926
1047.311 .0030916
1047.891 .0030905
1048.471 .0030898
1049.052 .0030896
1049.632 .0030897
1050.211 .0030899
1050.791 .0030903
1051.371 .0030906
1051.950 .0030912
1052.530 .0030915
1053.109 .0030914
1053.688 .0030913
1054.268 .0030916
1054.847 .0030927
1055.426 .0030941
1056.005 .0030951
1056.583 .0030963
1057.162 .0030976
1057.741 .0030991
1058.319 .0030999
1058.898 .0031006
1059.476 .0031012
1060.055 .0031014
1060.633 .0031019
1061.211 .0031022
1061.790 .0031027
1062.368 .0031036
1062.946 .0031046
1063.524 .0031052
1064.102 .0031057
1064.680 .0031057
1065.258 .0031050
1065.836 .0031042
1066.414 .0031029
1066.992 .0031022
1067.570 .0031011
1068.148 .0031005
1068.726 .0030995
1069.304 .0030987
1069.882 .0030988
1070.460 .0030993
1071.038 .0030997
1071.616 .0031000
1072.194 .0030998
1072.772 .0030999
1073.350 .0031003
1073.928 .0031005
1074.506 .0031008
1075.084 .0031006
1075.662 .0031007
1076.240 .0031016
1076.819 .0031016
1077.397 .0031019
1077.976 .0031016
1078.554 .0031016
1079.133 .0031013
1079.711 .0031010
1080.290 .0031002
1080.869 .0030993
1081.448 .0030985
1082.027 .0030978
1082.606 .0030967
1083.185 .0030955
1083.764 .0030945
1084.343 .0030934
1084.923 .0030932
1085.502 .0030935
1086.082 .0030938
1086.662 .0030944
1087.242 .0030948
1087.822 .0030961
1088.402 .0030967
1088.983 .0030974
1089.563 .0030975
1090.144 .0030967
1090.725 .0030956
1091.306 .0030947
1091.887 .0030943
1092.469 .0030936
1093.050 .0030931
1093.632 .0030926
1094.214 .0030931
1094.796 .0030939
1095.379 .0030940
1095.961 .0030943
1096.544 .0030944
1097.127 .0030954
1097.710 .0030960
1098.294 .0030976
1098.877 .0030998
1099.461 .0031027
1100.046 .0031064
1100.630 .0031107
1101.215 .0031149
1101.800 .0031189
1102.385 .0031234
1102.970 .0031269
1103.556 .0031287
1104.142 .0031324
1104.728 .0031354
1105.315 .0031384
1105.902 .0031416
1106.489 .0031446
1107.077 .0031483
1107.664 .0031519
1108.253 .0031560
1108.841 .0031615
1109.430 .0031664
1110.019 .0031710
1110.609 .0031753
1111.198 .0031790
1111.789 .0031823
1112.379 .0031856
1112.970 .0031885
1113.561 .0031965
1114.153 .0032006
1114.745 .0032043
1115.338 .0032079
1115.931 .0032114
1116.524 .0032159
1117.117 .0032194
1117.712 .0032234
1118.306 .0032267
1118.901 .0032275
1119.496 .0032264
1120.092 .0032238
1120.689 .0032222
1121.285 .0032215
1121.882 .0032197
1122.480 .0032157
1123.078 .0032122
1123.677 .0032068
1124.276 .0032034
1124.875 .0031987
1125.476 .0031938
1126.076 .0031904
1126.677 .0031849
1127.279 .0031796
1127.881 .0031729
1128.484 .0031641
1129.087 .0031576
1129.691 .0031538
1130.295 .0031532
1130.900 .0031523
1131.505 .0031537
1132.111 .0031577
1132.718 .0031610
1133.325 .0031653
1133.933 .0031673
1134.541 .0031717
1135.150 .0030286
1135.760 .0030585
1136.370 .0030175
1136.981 .0030160
1137.592 .0029962
1138.204 .0029701
1138.817 .0030282
1139.431 .0031103
1140.045 .0032010
1140.660 .0031751
1141.275 .0032564
1141.891 .0033501
1142.508 .0032956
1143.126 .0034073
1143.744 .0033241
1144.363 .0034017
1144.983 .0035264
