Measurement Sequence started on: 15-12-46-377
Integration time: 28
Scans to Average: 2 
>>>>>Begin Spectral Data<<<<<
432.689 .0000100
433.621 .0000100
434.552 .0000100
435.482 .0000100
436.410 .0000100
437.337 .0000100
438.262 .0000100
439.187 .0000100
440.110 .0000100
441.031 .0000100
441.952 .0000100
442.871 .0517251
443.789 .0535459
444.705 .0553051
445.621 .0559618
446.535 .0574587
447.447 .0588992
448.359 .0603065
449.269 .0616640
450.178 .0629814
451.086 .0642735
451.993 .0655254
452.898 .0510591
453.803 .0445084
454.706 .0405407
455.608 .0398879
456.508 .0373122
457.408 .0353084
458.306 .0336626
459.204 .0322856
460.100 .0311319
460.995 .0300996
461.888 .0292040
462.781 .0284453
463.673 .0277917
464.563 .0271884
465.452 .0266377
466.340 .0261388
467.228 .0256934
468.114 .0252938
468.999 .0249270
469.882 .0246082
470.765 .0243280
471.647 .0240727
472.528 .0238511
473.407 .0236561
474.286 .0234857
475.163 .0233302
476.040 .0231941
476.915 .0230701
477.790 .0229459
478.663 .0228377
479.535 .0227451
480.407 .0226637
481.277 .0226052
482.147 .0225662
483.015 .0225348
483.883 .0225138
484.749 .0224997
485.615 .0224969
486.479 .0225118
487.343 .0225321
488.206 .0225674
489.067 .0226058
489.928 .0226532
490.788 .0227071
491.647 .0227721
492.505 .0228568
493.362 .0229518
494.218 .0230597
495.073 .0231929
495.928 .0233316
496.781 .0234774
497.634 .0236376
498.486 .0238085
499.337 .0239845
500.187 .0241701
501.036 .0243608
501.884 .0245507
502.731 .0247502
503.578 .0249729
504.424 .0252135
505.268 .0254806
506.113 .0257599
506.956 .0260421
507.798 .0263414
508.640 .0266669
509.480 .0270241
510.320 .0274238
511.160 .0278659
511.998 .0283509
512.836 .0293350
513.672 .0300085
514.508 .0307545
515.344 .0316111
516.178 .0325742
517.012 .0336882
517.845 .0349475
518.677 .0363545
519.508 .0379353
520.339 .0397062
521.169 .0416266
521.998 .0436923
522.826 .0450758
523.654 .0471744
524.481 .0492043
525.307 .0511574
526.133 .0530491
526.958 .0548272
527.782 .0564920
528.605 .0579584
529.428 .0591881
530.250 .0602024
531.072 .0609980
531.892 .0616318
532.712 .0620416
533.532 .0622357
534.350 .0622559
535.168 .0620971
535.986 .0617464
536.802 .0612423
537.618 .0605024
538.434 .0595552
539.249 .0584237
540.063 .0570695
540.876 .0554889
541.689 .0537227
542.501 .0517628
543.313 .0497214
544.124 .0475709
544.934 .0454586
545.744 .0433750
546.553 .0413277
547.361 .0393691
548.169 .0374795
548.976 .0357523
549.783 .0342133
550.589 .0328285
551.395 .0316068
552.200 .0304845
553.004 .0295001
553.808 .0286367
554.611 .0278754
555.414 .0271972
556.216 .0265851
557.018 .0260106
557.819 .0255061
558.619 .0250388
559.419 .0245974
560.218 .0241914
561.017 .0238143
561.815 .0234634
562.613 .0231439
563.410 .0228412
564.207 .0225540
565.003 .0222757
565.799 .0220061
566.594 .0217387
567.388 .0214808
568.182 .0212375
568.976 .0209944
569.769 .0207614
570.562 .0205387
571.354 .0203211
572.145 .0201113
572.936 .0199194
573.727 .0197297
574.517 .0195450
575.307 .0193658
576.096 .0191951
576.885 .0190311
577.673 .0188776
578.461 .0187436
579.248 .0186212
580.035 .0185133
580.821 .0184116
581.607 .0183185
582.392 .0182322
583.177 .0181557
583.962 .0180918
584.746 .0180316
585.529 .0179822
586.313 .0179370
587.095 .0179008
587.878 .0178732
588.660 .0178547
589.441 .0178381
590.222 .0178291
591.003 .0178223
591.783 .0178172
592.563 .0178167
593.342 .0178187
594.121 .0178243
594.899 .0178327
595.678 .0178442
596.455 .0178586
597.233 .0178747
598.009 .0178918
598.786 .0179109
599.562 .0179315
600.338 .0179519
601.113 .0179742
601.888 .0179970
602.663 .0180198
603.437 .0180422
604.211 .0180662
604.984 .0180917
605.757 .0181178
606.530 .0181437
607.302 .0181695
608.074 .0181951
608.845 .0182338
609.616 .0182591
610.387 .0182841
611.158 .0183095
611.928 .0183346
612.697 .0183600
613.467 .0183858
614.236 .0184105
615.004 .0184355
615.773 .0184613
616.541 .0184869
617.308 .0185126
618.076 .0185375
618.843 .0185497
619.609 .0185737
620.375 .0185973
621.141 .0186195
621.907 .0186412
622.672 .0186628
623.437 .0186855
624.202 .0187076
624.966 .0187288
625.730 .0187498
626.493 .0187699
627.257 .0187898
628.020 .0188093
628.782 .0188278
629.545 .0188459
630.307 .0188624
631.068 .0188780
631.830 .0188934
632.591 .0189086
633.352 .0189229
634.112 .0189377
634.872 .0189526
635.632 .0189668
636.392 .0189795
637.151 .0189922
637.910 .0190042
638.668 .0190160
639.427 .0190282
640.185 .0190402
640.943 .0190525
641.700 .0190649
642.457 .0190769
643.214 .0190895
643.971 .0191017
644.727 .0191140
645.483 .0191263
646.239 .0191389
646.994 .0191521
647.750 .0191646
648.505 .0191770
649.259 .0191893
650.014 .0192010
650.768 .0192133
651.521 .0192258
652.275 .0192377
653.028 .0192495
653.781 .0192610
654.534 .0192720
655.286 .0192828
656.039 .0192937
656.791 .0193043
657.542 .0193147
658.294 .0193254
659.045 .0193352
659.796 .0193435
660.546 .0193519
661.297 .0193599
662.047 .0193679
662.796 .0193760
663.546 .0193832
664.295 .0193894
665.044 .0193954
665.793 .0194009
666.542 .0194062
667.290 .0194109
668.038 .0194161
668.786 .0194213
669.533 .0194266
670.281 .0194317
671.028 .0194367
671.774 .0194418
672.521 .0194473
673.267 .0194525
674.013 .0194580
674.759 .0194631
675.505 .0194681
676.250 .0194732
676.995 .0194788
677.740 .0194843
678.484 .0194894
679.229 .0194941
679.973 .0194993
680.717 .0195040
681.460 .0195083
682.204 .0195124
682.947 .0195168
683.690 .0195206
684.433 .0195246
685.175 .0195283
685.917 .0195317
686.659 .0195349
687.401 .0195383
688.142 .0195411
688.884 .0195437
689.625 .0195460
690.365 .0195482
691.106 .0195504
691.846 .0195524
692.586 .0195543
693.326 .0195559
694.066 .0195570
694.805 .0195579
695.545 .0195585
696.284 .0195586
697.022 .0195582
697.761 .0195575
698.499 .0195567
699.237 .0195553
699.975 .0195534
700.713 .0195511
701.450 .0195481
702.187 .0195450
702.924 .0195412
703.661 .0195368
704.397 .0195317
705.133 .0195260
705.869 .0195198
706.605 .0195130
707.341 .0195053
708.076 .0194968
708.811 .0194875
709.546 .0194776
710.281 .0194675
711.015 .0194566
711.749 .0194453
712.483 .0194331
713.217 .0194207
713.950 .0194080
714.684 .0193946
715.417 .0193805
716.150 .0193659
716.882 .0193512
717.615 .0193360
718.347 .0193204
719.079 .0193052
719.811 .0192896
720.542 .0192741
721.273 .0192590
722.005 .0192435
722.735 .0192272
723.466 .0192111
724.196 .0191952
724.927 .0191795
725.656 .0191635
726.386 .0191471
727.116 .0191306
727.845 .0191144
728.574 .0190988
729.303 .0190832
730.031 .0190671
730.760 .0190511
731.488 .0190344
732.216 .0190181
732.944 .0190015
733.671 .0189845
734.398 .0189673
735.125 .0189506
735.852 .0189339
736.579 .0189168
737.305 .0188996
738.031 .0188824
738.757 .0188653
739.483 .0188483
740.208 .0188310
740.933 .0188131
741.658 .0187952
742.383 .0187778
743.108 .0187599
743.832 .0187417
744.556 .0187234
745.280 .0187051
746.004 .0186866
746.727 .0186684
747.450 .0186496
748.173 .0186300
748.896 .0186100
749.618 .0185902
750.340 .0185698
751.062 .0185496
751.784 .0185286
752.506 .0185076
753.227 .0184867
753.948 .0184654
754.669 .0184435
755.389 .0184218
756.110 .0184001
756.830 .0183780
757.550 .0183557
758.269 .0183333
758.989 .0183105
759.708 .0182878
760.427 .0182651
761.146 .0182423
761.864 .0182189
762.582 .0181958
763.300 .0181725
764.018 .0181494
764.736 .0181262
765.453 .0181028
766.170 .0180791
766.887 .0180554
767.603 .0180316
768.320 .0180080
769.036 .0179722
769.751 .0179487
770.467 .0179250
771.182 .0179013
771.897 .0178774
772.612 .0178535
773.327 .0178295
774.041 .0178056
774.755 .0177814
775.469 .0177572
776.183 .0177333
776.896 .0177095
777.609 .0176853
778.322 .0176617
779.035 .0176502
779.747 .0176263
780.459 .0176023
781.171 .0175783
781.882 .0175543
782.594 .0175306
783.305 .0175070
784.016 .0174833
784.726 .0174593
785.436 .0174358
786.147 .0174124
786.856 .0173892
787.566 .0173661
788.275 .0173426
788.984 .0173191
789.693 .0172955
790.401 .0172716
791.110 .0172478
791.818 .0172242
792.525 .0172005
793.233 .0171768
793.940 .0171529
794.647 .0171285
795.353 .0171040
796.060 .0170794
796.766 .0170551
797.472 .0170305
798.177 .0170054
798.883 .0169797
799.588 .0169538
800.292 .0169281
800.997 .0169022
801.701 .0168765
802.405 .0168508
803.109 .0168243
803.812 .0167975
804.515 .0167707
805.218 .0167441
805.921 .0167173
806.623 .0166906
807.325 .0166636
808.027 .0166366
808.728 .0166095
809.429 .0165822
810.130 .0165553
810.831 .0165285
811.531 .0165014
812.231 .0164741
812.931 .0164467
813.630 .0164192
814.330 .0163915
815.029 .0163642
815.727 .0163367
816.426 .0163089
817.124 .0162807
817.821 .0162522
818.519 .0162238
819.216 .0161956
819.913 .0161677
820.609 .0161396
821.306 .0161118
822.002 .0160840
822.697 .0160562
823.393 .0160290
824.088 .0160022
824.783 .0159754
825.477 .0159488
826.171 .0159227
826.865 .0158968
827.559 .0158713
828.252 .0158461
828.945 .0158212
829.638 .0157971
830.330 .0157731
831.023 .0157495
831.714 .0157260
832.406 .0157028
833.097 .0156796
833.788 .0156567
834.479 .0156342
835.169 .0156118
835.859 .0155896
836.548 .0155676
837.238 .0155459
837.927 .0155243
838.615 .0155027
839.304 .0154812
839.992 .0154596
840.680 .0154382
841.367 .0154162
842.054 .0153942
842.741 .0153722
843.428 .0153502
844.114 .0153283
844.800 .0153058
845.485 .0152830
846.170 .0152599
846.855 .0152366
847.540 .0152132
848.224 .0151899
848.908 .0151662
849.592 .0151420
850.275 .0151174
850.958 .0150926
851.641 .0150679
852.323 .0150432
853.005 .0150186
853.687 .0149936
854.368 .0149686
855.049 .0149436
855.730 .0149182
856.410 .0148932
857.090 .0148680
857.769 .0148431
858.449 .0148182
859.128 .0147931
859.806 .0147680
860.485 .0147433
861.163 .0147189
861.840 .0146946
862.518 .0146701
863.195 .0146455
863.871 .0146208
864.548 .0145965
865.224 .0145728
865.899 .0145486
866.574 .0145243
867.249 .0145003
867.924 .0144764
868.598 .0144525
869.272 .0144286
869.946 .0144050
870.619 .0143814
871.292 .0143580
871.964 .0143344
872.636 .0143109
873.308 .0142882
873.979 .0142657
874.651 .0142439
875.321 .0142226
875.992 .0142016
876.662 .0141805
877.331 .0141600
878.001 .0141313
878.670 .0141122
879.338 .0140935
880.007 .0140749
880.675 .0140569
881.342 .0140392
882.009 .0140222
882.676 .0140056
883.343 .0139896
884.009 .0139741
884.675 .0139585
885.340 .0139432
886.005 .0139286
886.670 .0139142
887.334 .0138999
887.998 .0138939
888.662 .0138805
889.325 .0138678
889.988 .0138552
890.650 .0138430
891.312 .0138316
891.974 .0138202
892.636 .0138093
893.297 .0137984
893.957 .0137877
894.618 .0137769
895.278 .0137663
895.937 .0137558
896.596 .0137458
897.255 .0137358
897.914 .0137256
898.572 .0137156
899.230 .0137058
899.887 .0136956
900.544 .0136853
901.201 .0136748
901.857 .0136643
902.513 .0136536
903.168 .0136431
903.823 .0136324
904.478 .0136217
905.132 .0136114
905.786 .0136012
906.440 .0135906
907.093 .0135798
907.746 .0135690
908.399 .0135581
909.051 .0135471
909.703 .0135358
910.354 .0135244
911.005 .0135131
911.656 .0135013
912.306 .0134897
912.956 .0134780
913.605 .0134664
914.254 .0134548
914.903 .0134430
915.551 .0134312
916.199 .0134187
916.847 .0134061
917.494 .0133935
918.141 .0133814
918.788 .0133690
919.434 .0133565
920.079 .0133443
920.725 .0133324
921.370 .0133205
922.014 .0133084
922.658 .0132965
923.302 .0132844
923.946 .0132723
924.589 .0132598
925.231 .0132470
925.873 .0132347
926.515 .0132226
927.157 .0132110
927.798 .0131996
928.439 .0131887
929.079 .0131780
929.719 .0131675
930.359 .0131576
930.998 .0131475
931.637 .0131375
932.275 .0131278
932.913 .0131185
933.551 .0131091
934.188 .0130999
934.825 .0130909
935.462 .0130824
936.098 .0130742
936.733 .0130659
937.369 .0130577
938.004 .0130493
938.638 .0130408
939.273 .0130322
939.907 .0130235
940.540 .0130147
941.173 .0130059
941.806 .0129972
942.438 .0129884
943.070 .0129794
943.702 .0129705
944.333 .0129617
944.964 .0129529
945.594 .0129442
946.224 .0129352
946.854 .0129265
947.483 .0129174
948.112 .0129081
948.741 .0128988
949.369 .0128846
949.996 .0128751
950.624 .0128658
951.251 .0128567
951.878 .0128477
952.504 .0128386
953.130 .0128298
953.755 .0128208
954.380 .0128122
955.005 .0128034
955.629 .0127949
956.253 .0127864
956.877 .0127778
957.500 .0127695
958.123 .0127612
958.746 .0127532
959.368 .0127496
959.990 .0127420
960.611 .0127347
961.232 .0127272
961.853 .0127198
962.473 .0127128
963.093 .0127061
963.712 .0126997
964.331 .0126935
964.950 .0126875
965.569 .0126820
966.187 .0126769
966.804 .0126716
967.422 .0126664
968.039 .0126612
968.655 .0126560
969.272 .0126508
969.887 .0126461
970.503 .0126412
971.118 .0126361
971.733 .0126311
972.347 .0126261
972.961 .0126207
973.575 .0126152
974.188 .0126097
974.801 .0126041
975.414 .0125985
976.026 .0125927
976.638 .0125871
977.250 .0125818
977.861 .0125768
978.472 .0125721
979.083 .0125673
979.693 .0125627
980.303 .0125579
980.912 .0125532
981.521 .0125488
982.130 .0125450
982.738 .0125413
983.346 .0125373
983.954 .0125332
984.562 .0125294
985.169 .0125254
985.775 .0125211
986.382 .0125169
986.988 .0125130
987.594 .0125096
988.199 .0125059
988.804 .0125020
989.409 .0124984
990.013 .0124944
990.617 .0124909
991.221 .0124874
991.824 .0124837
992.427 .0124800
993.030 .0124764
993.632 .0124729
994.234 .0124698
994.836 .0124663
995.438 .0124631
996.039 .0124600
996.640 .0124571
997.240 .0124539
997.840 .0124504
998.440 .0124472
999.040 .0124442
999.639 .0124414
1000.238 .0124388
1000.836 .0124361
1001.435 .0124332
1002.033 .0124303
1002.630 .0124278
1003.228 .0124259
1003.825 .0124245
1004.422 .0124230
1005.018 .0124218
1005.614 .0124209
1006.210 .0124205
1006.806 .0124198
1007.401 .0124186
1007.996 .0124177
1008.591 .0124173
1009.186 .0124172
1009.780 .0124176
1010.374 .0124178
1010.967 .0124182
1011.561 .0124194
1012.154 .0124210
1012.746 .0124225
1013.339 .0124240
1013.931 .0124253
1014.523 .0124266
1015.115 .0124281
1015.706 .0124300
1016.298 .0124315
1016.888 .0124334
1017.479 .0124359
1018.069 .0124396
1018.660 .0124423
1019.250 .0124445
1019.839 .0124467
1020.429 .0124495
1021.018 .0124526
1021.607 .0124554
1022.195 .0124579
1022.784 .0124601
1023.372 .0124624
1023.960 .0124648
1024.547 .0124671
1025.135 .0124692
1025.722 .0124713
1026.309 .0124736
1026.896 .0124763
1027.483 .0124786
1028.069 .0124793
1028.655 .0124810
1029.241 .0124821
1029.827 .0124830
1030.412 .0124838
1030.997 .0124841
1031.582 .0124838
1032.167 .0124833
1032.752 .0124826
1033.336 .0124818
1033.921 .0124810
1034.505 .0124805
1035.089 .0124801
1035.672 .0124798
1036.256 .0124795
1036.839 .0124786
1037.422 .0124777
1038.005 .0124766
1038.588 .0124756
1039.171 .0124744
1039.753 .0124736
1040.335 .0124729
1040.918 .0124721
1041.500 .0124712
1042.081 .0124705
1042.663 .0124701
1043.244 .0124701
1043.826 .0124701
1044.407 .0124702
1044.988 .0124703
1045.569 .0124699
1046.150 .0124688
1046.730 .0124675
1047.311 .0124661
1047.891 .0124654
1048.471 .0124648
1049.052 .0124649
1049.632 .0124655
1050.211 .0124653
1050.791 .0124651
1051.371 .0124651
1051.950 .0124652
1052.530 .0124652
1053.109 .0124654
1053.688 .0124657
1054.268 .0124659
1054.847 .0124666
1055.426 .0124676
1056.005 .0124690
1056.583 .0124710
1057.162 .0124739
1057.741 .0124759
1058.319 .0124781
1058.898 .0124799
1059.476 .0124812
1060.055 .0124826
1060.633 .0124841
1061.211 .0124862
1061.790 .0124877
1062.368 .0124896
1062.946 .0124906
1063.524 .0124908
1064.102 .0124904
1064.680 .0124886
1065.258 .0124863
1065.836 .0124842
1066.414 .0124824
1066.992 .0124808
1067.570 .0124794
1068.148 .0124777
1068.726 .0124764
1069.304 .0124745
1069.882 .0124726
1070.460 .0124715
1071.038 .0124695
1071.616 .0124688
1072.194 .0124672
1072.772 .0124658
1073.350 .0124644
1073.928 .0124631
1074.506 .0124628
1075.084 .0124622
1075.662 .0124607
1076.240 .0124588
1076.819 .0124563
1077.397 .0124534
1077.976 .0124516
1078.554 .0124493
1079.133 .0124480
1079.711 .0124465
1080.290 .0124448
1080.869 .0124434
1081.448 .0124409
1082.027 .0124398
1082.606 .0124375
1083.185 .0124367
1083.764 .0124360
1084.343 .0124346
1084.923 .0124339
1085.502 .0124353
1086.082 .0124365
1086.662 .0124377
1087.242 .0124392
1087.822 .0124405
1088.402 .0124409
1088.983 .0124414
1089.563 .0124427
1090.144 .0124446
1090.725 .0124457
1091.306 .0124477
1091.887 .0124486
1092.469 .0124512
1093.050 .0124528
1093.632 .0124543
1094.214 .0124563
1094.796 .0124577
1095.379 .0124580
1095.961 .0124590
1096.544 .0124595
1097.127 .0124610
1097.710 .0124626
1098.294 .0124646
1098.877 .0124680
1099.461 .0124713
1100.046 .0124743
1100.630 .0124779
1101.215 .0124810
1101.800 .0124843
1102.385 .0124874
1102.970 .0124907
1103.556 .0124911
1104.142 .0124953
1104.728 .0125000
1105.315 .0125057
1105.902 .0125102
1106.489 .0125155
1107.077 .0125215
1107.664 .0125261
1108.253 .0125310
1108.841 .0125375
1109.430 .0125415
1110.019 .0125459
1110.609 .0125509
1111.198 .0125576
1111.789 .0125634
1112.379 .0125717
1112.970 .0125801
1113.561 .0125953
1114.153 .0126071
1114.745 .0126204
1115.338 .0126358
1115.931 .0126529
1116.524 .0126724
1117.117 .0126919
1117.712 .0127117
1118.306 .0127325
1118.901 .0127511
1119.496 .0127713
1120.092 .0127919
1120.689 .0128121
1121.285 .0128329
1121.882 .0128589
1122.480 .0128835
1123.078 .0129107
1123.677 .0129401
1124.276 .0129726
1124.875 .0130061
1125.476 .0130397
1126.076 .0130737
1126.677 .0131101
1127.279 .0131497
1127.881 .0131904
1128.484 .0132306
1129.087 .0132765
1129.691 .0133253
1130.295 .0133778
1130.900 .0134327
1131.505 .0134902
1132.111 .0135479
1132.718 .0136050
1133.325 .0136674
1133.933 .0137272
1134.541 .0137953
1135.150 .0137321
1135.760 .0137531
1136.370 .0138597
1136.981 .0139382
1137.592 .0139774
1138.204 .0139825
1138.817 .0141096
1139.431 .0142403
1140.045 .0144121
1140.660 .0145209
1141.275 .0145759
1141.891 .0146666
1142.508 .0146764
1143.126 .0149112
1143.744 .0148393
1144.363 .0151751
1144.983 .0160003
