Measurement Sequence started on: 15-12-46-377
Integration time: 28
Scans to Average: 2 
>>>>>Begin Spectral Data<<<<<
432.689 .0000100
433.621 .0000100
434.552 .0000100
435.482 .0000100
436.410 .0000100
437.337 .0000100
438.262 .0000100
439.187 .0000100
440.110 .0000100
441.031 .0000100
441.952 .0000100
442.871 .0110912
443.789 .0114477
444.705 .0117826
445.621 .0118472
446.535 .0121413
447.447 .0124164
448.359 .0126774
449.269 .0129275
450.178 .0131808
451.086 .0134335
451.993 .0136735
452.898 .0104337
453.803 .0089426
454.706 .0080517
455.608 .0079303
456.508 .0073733
457.408 .0069030
458.306 .0065551
459.204 .0063111
460.100 .0060971
460.995 .0059289
461.888 .0057852
462.781 .0056680
463.673 .0055605
464.563 .0054717
465.452 .0053954
466.340 .0053098
467.228 .0052358
468.114 .0051849
468.999 .0051461
469.882 .0051225
470.765 .0050913
471.647 .0050599
472.528 .0050466
473.407 .0050312
474.286 .0050115
475.163 .0049977
476.040 .0049822
476.915 .0049707
477.790 .0049639
478.663 .0049516
479.535 .0049355
480.407 .0049229
481.277 .0049152
482.147 .0049134
483.015 .0049114
483.883 .0049140
484.749 .0049167
485.615 .0049315
486.479 .0049543
487.343 .0049703
488.206 .0049868
489.067 .0050086
489.928 .0050251
490.788 .0050469
491.647 .0050715
492.505 .0050915
493.362 .0051237
494.218 .0051592
495.073 .0051932
495.928 .0052316
496.781 .0052646
497.634 .0052994
498.486 .0053413
499.337 .0053845
500.187 .0054235
501.036 .0054618
501.884 .0055068
502.731 .0055514
503.578 .0055954
504.424 .0056411
505.268 .0056942
506.113 .0057487
506.956 .0058147
507.798 .0058793
508.640 .0059641
509.480 .0060524
510.320 .0061501
511.160 .0062778
511.998 .0063837
512.836 .0065890
513.672 .0067362
514.508 .0068872
515.344 .0070041
516.178 .0071163
517.012 .0072669
517.845 .0074319
518.677 .0076454
519.508 .0078803
520.339 .0081165
521.169 .0083876
521.998 .0086747
522.826 .0088522
523.654 .0091545
524.481 .0094173
525.307 .0097523
526.133 .0100789
526.958 .0103804
527.782 .0106632
528.605 .0109003
529.428 .0111535
530.250 .0114163
531.072 .0116031
531.892 .0117960
532.712 .0119354
533.532 .0120171
534.350 .0120838
535.168 .0120943
535.986 .0120987
536.802 .0121148
537.618 .0120862
538.434 .0120267
539.249 .0119071
540.063 .0117616
540.876 .0116103
541.689 .0114139
542.501 .0111955
543.313 .0109625
544.124 .0106950
544.934 .0104493
545.744 .0101206
546.553 .0097899
547.361 .0094843
548.169 .0091901
548.976 .0089267
549.783 .0086471
550.589 .0083459
551.395 .0080903
552.200 .0078522
553.004 .0076494
553.808 .0074811
554.611 .0073058
555.414 .0071774
556.216 .0070796
557.018 .0069764
557.819 .0068802
558.619 .0067980
559.419 .0067304
560.218 .0066638
561.017 .0066031
561.815 .0065398
562.613 .0064772
563.410 .0064250
564.207 .0063863
565.003 .0063634
565.799 .0063360
566.594 .0063123
567.388 .0062816
568.182 .0062546
568.976 .0062216
569.769 .0061887
570.562 .0061607
571.354 .0061344
572.145 .0061057
572.936 .0060846
573.727 .0060711
574.517 .0060638
575.307 .0060663
576.096 .0060771
576.885 .0060947
577.673 .0061138
578.461 .0061350
579.248 .0061623
580.035 .0061982
580.821 .0062408
581.607 .0062936
582.392 .0063577
583.177 .0064276
583.962 .0065027
584.746 .0065851
585.529 .0066809
586.313 .0067818
587.095 .0068893
587.878 .0070026
588.660 .0071208
589.441 .0072425
590.222 .0073687
591.003 .0075000
591.783 .0076338
592.563 .0077714
593.342 .0079101
594.121 .0080514
594.899 .0081934
595.678 .0083349
596.455 .0084782
597.233 .0086219
598.009 .0087646
598.786 .0089046
599.562 .0090448
600.338 .0091836
601.113 .0093212
601.888 .0094567
602.663 .0095903
603.437 .0097209
604.211 .0098498
604.984 .0099769
605.757 .0101009
606.530 .0102236
607.302 .0103441
608.074 .0104617
608.845 .0106282
609.616 .0107398
610.387 .0108496
611.158 .0109578
611.928 .0110638
612.697 .0111674
613.467 .0112694
614.236 .0113692
615.004 .0114671
615.773 .0115637
616.541 .0116588
617.308 .0117530
618.076 .0118456
618.843 .0118893
619.609 .0119803
620.375 .0120707
621.141 .0121599
621.907 .0122482
622.672 .0123361
623.437 .0124242
624.202 .0125112
624.966 .0125971
625.730 .0126829
626.493 .0127671
627.257 .0128500
628.020 .0129323
628.782 .0130141
629.545 .0130957
630.307 .0131758
631.068 .0132552
631.830 .0133338
632.591 .0134116
633.352 .0134884
634.112 .0135642
634.872 .0136400
635.632 .0137144
636.392 .0137874
637.151 .0138597
637.910 .0139303
638.668 .0139998
639.427 .0140690
640.185 .0141378
640.943 .0142057
641.700 .0142728
642.457 .0143386
643.214 .0144039
643.971 .0144684
644.727 .0145315
645.483 .0145943
646.239 .0146557
646.994 .0147173
647.750 .0147782
648.505 .0148386
649.259 .0148983
650.014 .0149572
650.768 .0150160
651.521 .0150736
652.275 .0151308
653.028 .0151876
653.781 .0152435
654.534 .0152986
655.286 .0153525
656.039 .0154060
656.791 .0154590
657.542 .0155124
658.294 .0155656
659.045 .0156186
659.796 .0156705
660.546 .0157214
661.297 .0157719
662.047 .0158214
662.796 .0158705
663.546 .0159187
664.295 .0159662
665.044 .0160140
665.793 .0160609
666.542 .0161078
667.290 .0161541
668.038 .0162007
668.786 .0162464
669.533 .0162910
670.281 .0163345
671.028 .0163769
671.774 .0164186
672.521 .0164594
673.267 .0164999
674.013 .0165400
674.759 .0165801
675.505 .0166198
676.250 .0166592
676.995 .0166989
677.740 .0167372
678.484 .0167748
679.229 .0168114
679.973 .0168473
680.717 .0168821
681.460 .0169160
682.204 .0169498
682.947 .0169833
683.690 .0170161
684.433 .0170485
685.175 .0170800
685.917 .0171104
686.659 .0171397
687.401 .0171675
688.142 .0171944
688.884 .0172207
689.625 .0172460
690.365 .0172704
691.106 .0172943
691.846 .0173177
692.586 .0173406
693.326 .0173626
694.066 .0173837
694.805 .0174035
695.545 .0174225
696.284 .0174404
697.022 .0174565
697.761 .0174714
698.499 .0174857
699.237 .0174992
699.975 .0175115
700.713 .0175227
701.450 .0175326
702.187 .0175414
702.924 .0175488
703.661 .0175545
704.397 .0175583
705.133 .0175603
705.869 .0175616
706.605 .0175619
707.341 .0175610
708.076 .0175585
708.811 .0175546
709.546 .0175504
710.281 .0175455
711.015 .0175390
711.749 .0175314
712.483 .0175228
713.217 .0175132
713.950 .0175023
714.684 .0174905
715.417 .0174773
716.150 .0174632
716.882 .0174489
717.615 .0174342
718.347 .0174180
719.079 .0174006
719.811 .0173826
720.542 .0173643
721.273 .0173450
722.005 .0173240
722.735 .0173021
723.466 .0172797
724.196 .0172569
724.927 .0172339
725.656 .0172098
726.386 .0171844
727.116 .0171584
727.845 .0171321
728.574 .0171057
729.303 .0170780
730.031 .0170493
730.760 .0170201
731.488 .0169903
732.216 .0169598
732.944 .0169281
733.671 .0168960
734.398 .0168638
735.125 .0168312
735.852 .0167981
736.579 .0167638
737.305 .0167290
738.031 .0166944
738.757 .0166595
739.483 .0166243
740.208 .0165883
740.933 .0165519
741.658 .0165156
742.383 .0164791
743.108 .0164422
743.832 .0164049
744.556 .0163667
745.280 .0163286
746.004 .0162906
746.727 .0162525
747.450 .0162139
748.173 .0161747
748.896 .0161351
749.618 .0160950
750.340 .0160546
751.062 .0160142
751.784 .0159737
752.506 .0159332
753.227 .0158927
753.948 .0158517
754.669 .0158105
755.389 .0157692
756.110 .0157278
756.830 .0156857
757.550 .0156431
758.269 .0156003
758.989 .0155572
759.708 .0155137
760.427 .0154701
761.146 .0154268
761.864 .0153831
762.582 .0153392
763.300 .0152948
764.018 .0152503
764.736 .0152055
765.453 .0151599
766.170 .0151138
766.887 .0150672
767.603 .0150203
768.320 .0149731
769.036 .0149002
769.751 .0148522
770.467 .0148033
771.182 .0147534
771.897 .0147027
772.612 .0146511
773.327 .0145988
774.041 .0145459
774.755 .0144921
775.469 .0144378
776.183 .0143827
776.896 .0143271
777.609 .0142710
778.322 .0142144
779.035 .0141844
779.747 .0141274
780.459 .0140699
781.171 .0140121
781.882 .0139539
782.594 .0138954
783.305 .0138371
784.016 .0137790
784.726 .0137205
785.436 .0136622
786.147 .0136037
786.856 .0135453
787.566 .0134869
788.275 .0134285
788.984 .0133700
789.693 .0133118
790.401 .0132534
791.110 .0131950
791.818 .0131368
792.525 .0130793
793.233 .0130220
793.940 .0129651
794.647 .0129078
795.353 .0128506
796.060 .0127936
796.766 .0127369
797.472 .0126802
798.177 .0126233
798.883 .0125664
799.588 .0125094
800.292 .0124523
800.997 .0123953
801.701 .0123382
802.405 .0122812
803.109 .0122244
803.812 .0121673
804.515 .0121098
805.218 .0120522
805.921 .0119945
806.623 .0119368
807.325 .0118789
808.027 .0118205
808.728 .0117621
809.429 .0117037
810.130 .0116450
810.831 .0115864
811.531 .0115276
812.231 .0114687
812.931 .0114094
813.630 .0113495
814.330 .0112893
815.029 .0112288
815.727 .0111681
816.426 .0111070
817.124 .0110455
817.821 .0109836
818.519 .0109214
819.216 .0108592
819.913 .0107974
820.609 .0107354
821.306 .0106729
822.002 .0106104
822.697 .0105476
823.393 .0104847
824.088 .0104220
824.783 .0103596
825.477 .0102974
826.171 .0102356
826.865 .0101737
827.559 .0101120
828.252 .0100511
828.945 .0099905
829.638 .0099301
830.330 .0098703
831.023 .0098106
831.714 .0097511
832.406 .0096919
833.097 .0096333
833.788 .0095754
834.479 .0095182
835.169 .0094617
835.859 .0094060
836.548 .0093510
837.238 .0092967
837.927 .0092430
838.615 .0091904
839.304 .0091384
839.992 .0090865
840.680 .0090351
841.367 .0089842
842.054 .0089337
842.741 .0088842
843.428 .0088353
844.114 .0087867
844.800 .0087382
845.485 .0086900
846.170 .0086420
846.855 .0085946
847.540 .0085471
848.224 .0084996
848.908 .0084525
849.592 .0084054
850.275 .0083584
850.958 .0083120
851.641 .0082662
852.323 .0082207
853.005 .0081756
853.687 .0081307
854.368 .0080859
855.049 .0080415
855.730 .0079974
856.410 .0079535
857.090 .0079098
857.769 .0078662
858.449 .0078228
859.128 .0077795
859.806 .0077367
860.485 .0076939
861.163 .0076515
861.840 .0076092
862.518 .0075665
863.195 .0075238
863.871 .0074815
864.548 .0074394
865.224 .0073977
865.899 .0073561
866.574 .0073145
867.249 .0072732
867.924 .0072322
868.598 .0071912
869.272 .0071503
869.946 .0071097
870.619 .0070691
871.292 .0070282
871.964 .0069876
872.636 .0069469
873.308 .0069064
873.979 .0068661
874.651 .0068256
875.321 .0067848
875.992 .0067441
876.662 .0067034
877.331 .0066630
878.001 .0066028
878.670 .0065626
879.338 .0065229
880.007 .0064837
880.675 .0064445
881.342 .0064055
882.009 .0063672
882.676 .0063293
883.343 .0062916
884.009 .0062546
884.675 .0062177
885.340 .0061814
886.005 .0061458
886.670 .0061107
887.334 .0060762
887.998 .0060608
888.662 .0060272
889.325 .0059945
889.988 .0059622
890.650 .0059305
891.312 .0058996
891.974 .0058695
892.636 .0058401
893.297 .0058113
893.957 .0057835
894.618 .0057566
895.278 .0057308
895.937 .0057057
896.596 .0056815
897.255 .0056582
897.914 .0056360
898.572 .0056146
899.230 .0055940
899.887 .0055741
900.544 .0055546
901.201 .0055359
901.857 .0055181
902.513 .0055007
903.168 .0054840
903.823 .0054678
904.478 .0054523
905.132 .0054373
905.786 .0054226
906.440 .0054082
907.093 .0053942
907.746 .0053806
908.399 .0053676
909.051 .0053548
909.703 .0053421
910.354 .0053297
911.005 .0053174
911.656 .0053053
912.306 .0052933
912.956 .0052816
913.605 .0052701
914.254 .0052583
914.903 .0052464
915.551 .0052343
916.199 .0052222
916.847 .0052102
917.494 .0051982
918.141 .0051861
918.788 .0051735
919.434 .0051609
920.079 .0051482
920.725 .0051358
921.370 .0051233
922.014 .0051109
922.658 .0050987
923.302 .0050863
923.946 .0050740
924.589 .0050615
925.231 .0050490
925.873 .0050363
926.515 .0050237
927.157 .0050109
927.798 .0049978
928.439 .0049844
929.079 .0049709
929.719 .0049574
930.359 .0049437
930.998 .0049300
931.637 .0049160
932.275 .0049018
932.913 .0048870
933.551 .0048719
934.188 .0048570
934.825 .0048420
935.462 .0048268
936.098 .0048115
936.733 .0047961
937.369 .0047803
938.004 .0047642
938.638 .0047481
939.273 .0047318
939.907 .0047154
940.540 .0046988
941.173 .0046819
941.806 .0046644
942.438 .0046464
943.070 .0046284
943.702 .0046102
944.333 .0045918
944.964 .0045728
945.594 .0045539
946.224 .0045348
946.854 .0045159
947.483 .0044970
948.112 .0044782
948.741 .0044594
949.369 .0044311
949.996 .0044125
950.624 .0043939
951.251 .0043756
951.878 .0043576
952.504 .0043401
953.130 .0043230
953.755 .0043059
954.380 .0042890
955.005 .0042725
955.629 .0042561
956.253 .0042399
956.877 .0042239
957.500 .0042087
958.123 .0041939
958.746 .0041795
959.368 .0041738
959.990 .0041602
960.611 .0041466
961.232 .0041335
961.853 .0041209
962.473 .0041088
963.093 .0040968
963.712 .0040852
964.331 .0040739
964.950 .0040632
965.569 .0040528
966.187 .0040429
966.804 .0040333
967.422 .0040241
968.039 .0040150
968.655 .0040062
969.272 .0039977
969.887 .0039895
970.503 .0039816
971.118 .0039741
971.733 .0039667
972.347 .0039596
972.961 .0039526
973.575 .0039460
974.188 .0039396
974.801 .0039335
975.414 .0039278
976.026 .0039226
976.638 .0039175
977.250 .0039128
977.861 .0039081
978.472 .0039033
979.083 .0038987
979.693 .0038942
980.303 .0038898
980.912 .0038857
981.521 .0038817
982.130 .0038780
982.738 .0038746
983.346 .0038711
983.954 .0038678
984.562 .0038647
985.169 .0038619
985.775 .0038590
986.382 .0038560
986.988 .0038531
987.594 .0038503
988.199 .0038476
988.804 .0038451
989.409 .0038428
990.013 .0038408
990.617 .0038390
991.221 .0038371
991.824 .0038353
992.427 .0038332
993.030 .0038310
993.632 .0038290
994.234 .0038271
994.836 .0038253
995.438 .0038233
996.039 .0038215
996.640 .0038198
997.240 .0038181
997.840 .0038162
998.440 .0038146
999.040 .0038131
999.639 .0038116
1000.238 .0038099
1000.836 .0038083
1001.435 .0038069
1002.033 .0038054
1002.630 .0038041
1003.228 .0038032
1003.825 .0038023
1004.422 .0038013
1005.018 .0038001
1005.614 .0037991
1006.210 .0037983
1006.806 .0037975
1007.401 .0037967
1007.996 .0037965
1008.591 .0037965
1009.186 .0037968
1009.780 .0037973
1010.374 .0037978
1010.967 .0037982
1011.561 .0037986
1012.154 .0037994
1012.746 .0038002
1013.339 .0038009
1013.931 .0038016
1014.523 .0038024
1015.115 .0038033
1015.706 .0038040
1016.298 .0038046
1016.888 .0038056
1017.479 .0038069
1018.069 .0038083
1018.660 .0038090
1019.250 .0038095
1019.839 .0038098
1020.429 .0038102
1021.018 .0038105
1021.607 .0038111
1022.195 .0038116
1022.784 .0038119
1023.372 .0038120
1023.960 .0038123
1024.547 .0038124
1025.135 .0038126
1025.722 .0038131
1026.309 .0038134
1026.896 .0038135
1027.483 .0038133
1028.069 .0038126
1028.655 .0038120
1029.241 .0038113
1029.827 .0038107
1030.412 .0038099
1030.997 .0038092
1031.582 .0038084
1032.167 .0038073
1032.752 .0038064
1033.336 .0038057
1033.921 .0038049
1034.505 .0038043
1035.089 .0038037
1035.672 .0038029
1036.256 .0038019
1036.839 .0038010
1037.422 .0038001
1038.005 .0037997
1038.588 .0037994
1039.171 .0037993
1039.753 .0037996
1040.335 .0038003
1040.918 .0038007
1041.500 .0038010
1042.081 .0038015
1042.663 .0038021
1043.244 .0038029
1043.826 .0038044
1044.407 .0038054
1044.988 .0038067
1045.569 .0038080
1046.150 .0038092
1046.730 .0038105
1047.311 .0038117
1047.891 .0038130
1048.471 .0038142
1049.052 .0038156
1049.632 .0038165
1050.211 .0038170
1050.791 .0038179
1051.371 .0038187
1051.950 .0038196
1052.530 .0038205
1053.109 .0038216
1053.688 .0038219
1054.268 .0038233
1054.847 .0038245
1055.426 .0038261
1056.005 .0038285
1056.583 .0038309
1057.162 .0038335
1057.741 .0038360
1058.319 .0038386
1058.898 .0038412
1059.476 .0038438
1060.055 .0038465
1060.633 .0038490
1061.211 .0038524
1061.790 .0038557
1062.368 .0038589
1062.946 .0038619
1063.524 .0038649
1064.102 .0038673
1064.680 .0038698
1065.258 .0038726
1065.836 .0038748
1066.414 .0038768
1066.992 .0038790
1067.570 .0038814
1068.148 .0038837
1068.726 .0038864
1069.304 .0038895
1069.882 .0038928
1070.460 .0038964
1071.038 .0038985
1071.616 .0039010
1072.194 .0039035
1072.772 .0039062
1073.350 .0039084
1073.928 .0039102
1074.506 .0039114
1075.084 .0039118
1075.662 .0039119
1076.240 .0039120
1076.819 .0039121
1077.397 .0039118
1077.976 .0039113
1078.554 .0039100
1079.133 .0039079
1079.711 .0039057
1080.290 .0039029
1080.869 .0039003
1081.448 .0038976
1082.027 .0038954
1082.606 .0038927
1083.185 .0038901
1083.764 .0038886
1084.343 .0038872
1084.923 .0038856
1085.502 .0038835
1086.082 .0038818
1086.662 .0038801
1087.242 .0038782
1087.822 .0038765
1088.402 .0038750
1088.983 .0038740
1089.563 .0038730
1090.144 .0038718
1090.725 .0038713
1091.306 .0038712
1091.887 .0038705
1092.469 .0038710
1093.050 .0038720
1093.632 .0038731
1094.214 .0038750
1094.796 .0038780
1095.379 .0038817
1095.961 .0038860
1096.544 .0038896
1097.127 .0038936
1097.710 .0038985
1098.294 .0039041
1098.877 .0039100
1099.461 .0039159
1100.046 .0039229
1100.630 .0039306
1101.215 .0039383
1101.800 .0039462
1102.385 .0039532
1102.970 .0039599
1103.556 .0039632
1104.142 .0039692
1104.728 .0039756
1105.315 .0039826
1105.902 .0039900
1106.489 .0039976
1107.077 .0040061
1107.664 .0040138
1108.253 .0040210
1108.841 .0040278
1109.430 .0040341
1110.019 .0040399
1110.609 .0040446
1111.198 .0040476
1111.789 .0040516
1112.379 .0040558
1112.970 .0040590
1113.561 .0040655
1114.153 .0040671
1114.745 .0040692
1115.338 .0040695
1115.931 .0040693
1116.524 .0040685
1117.117 .0040661
1117.712 .0040614
1118.306 .0040553
1118.901 .0040490
1119.496 .0040413
1120.092 .0040317
1120.689 .0040244
1121.285 .0040161
1121.882 .0040066
1122.480 .0039975
1123.078 .0039882
1123.677 .0039771
1124.276 .0039676
1124.875 .0039553
1125.476 .0039434
1126.076 .0039341
1126.677 .0039242
1127.279 .0039167
1127.881 .0039126
1128.484 .0039097
1129.087 .0039065
1129.691 .0039064
1130.295 .0039121
1130.900 .0039174
1131.505 .0039250
1132.111 .0039342
1132.718 .0039457
1133.325 .0039607
1133.933 .0039737
1134.541 .0039854
1135.150 .0037281
1135.760 .0038126
1136.370 .0038159
1136.981 .0038732
1137.592 .0039708
1138.204 .0040025
1138.817 .0039968
1139.431 .0040994
1140.045 .0042500
1140.660 .0042008
1141.275 .0042893
1141.891 .0043402
1142.508 .0044183
1143.126 .0045344
1143.744 .0044216
1144.363 .0044362
1144.983 .0045324
