Measurement Sequence started on: 15-12-46-377
Integration time: 28
Scans to Average: 2 
>>>>>Begin Spectral Data<<<<<
432.689 .0000100
433.621 .0000100
434.552 .0000100
435.482 .0000100
436.410 .0000100
437.337 .0000100
438.262 .0000100
439.187 .0000100
440.110 .0000100
441.031 .0000100
441.952 .0000100
442.871 .0045037
443.789 .0047333
444.705 .0049651
445.621 .0052024
446.535 .0054252
447.447 .0056479
448.359 .0058845
449.269 .0061109
450.178 .0063405
451.086 .0065716
451.993 .0067893
452.898 .0060004
453.803 .0056442
454.706 .0053983
455.608 .0053800
456.508 .0052258
457.408 .0050926
458.306 .0050150
459.204 .0049498
460.100 .0049090
460.995 .0049075
461.888 .0048952
462.781 .0049011
463.673 .0048816
464.563 .0048631
465.452 .0048173
466.340 .0047891
467.228 .0047646
468.114 .0047392
468.999 .0046974
469.882 .0046635
470.765 .0046286
471.647 .0045923
472.528 .0045684
473.407 .0045369
474.286 .0045093
475.163 .0044816
476.040 .0044551
476.915 .0044319
477.790 .0044026
478.663 .0043773
479.535 .0043521
480.407 .0043422
481.277 .0043318
482.147 .0043242
483.015 .0043152
483.883 .0043153
484.749 .0043141
485.615 .0043184
486.479 .0043206
487.343 .0043194
488.206 .0043172
489.067 .0043161
489.928 .0043164
490.788 .0043177
491.647 .0043228
492.505 .0043328
493.362 .0043459
494.218 .0043577
495.073 .0043569
495.928 .0043570
496.781 .0043525
497.634 .0043547
498.486 .0043567
499.337 .0043580
500.187 .0043552
501.036 .0043502
501.884 .0043449
502.731 .0043451
503.578 .0043466
504.424 .0043423
505.268 .0043420
506.113 .0043430
506.956 .0043394
507.798 .0043277
508.640 .0043236
509.480 .0043237
510.320 .0043043
511.160 .0042730
511.998 .0042321
512.836 .0041616
513.672 .0041290
514.508 .0041424
515.344 .0041664
516.178 .0041965
517.012 .0042759
517.845 .0043771
518.677 .0045143
519.508 .0046930
520.339 .0049054
521.169 .0051749
521.998 .0054296
522.826 .0056639
523.654 .0059823
524.481 .0063379
525.307 .0066984
526.133 .0070654
526.958 .0074539
527.782 .0078274
528.605 .0081376
529.428 .0083963
530.250 .0086525
531.072 .0088500
531.892 .0090338
532.712 .0091914
533.532 .0093061
534.350 .0093941
535.168 .0094441
535.986 .0094687
536.802 .0094947
537.618 .0094589
538.434 .0093958
539.249 .0092958
540.063 .0091426
540.876 .0089508
541.689 .0086875
542.501 .0084421
543.313 .0081689
544.124 .0078583
544.934 .0075131
545.744 .0071644
546.553 .0068112
547.361 .0064434
548.169 .0061062
548.976 .0058281
549.783 .0056075
550.589 .0054031
551.395 .0052690
552.200 .0051596
553.004 .0050829
553.808 .0050464
554.611 .0050355
555.414 .0050352
556.216 .0050501
557.018 .0050613
557.819 .0050794
558.619 .0051018
559.419 .0051322
560.218 .0051731
561.017 .0052215
561.815 .0052871
562.613 .0053440
563.410 .0053953
564.207 .0054404
565.003 .0054882
565.799 .0055277
566.594 .0055647
567.388 .0055990
568.182 .0056266
568.976 .0056538
569.769 .0056702
570.562 .0056893
571.354 .0057076
572.145 .0057198
572.936 .0057292
573.727 .0057365
574.517 .0057439
575.307 .0057460
576.096 .0057477
576.885 .0057530
577.673 .0057670
578.461 .0057827
579.248 .0057999
580.035 .0058211
580.821 .0058455
581.607 .0058716
582.392 .0059044
583.177 .0059435
583.962 .0059864
584.746 .0060314
585.529 .0060866
586.313 .0061483
587.095 .0062111
587.878 .0062771
588.660 .0063463
589.441 .0064196
590.222 .0064959
591.003 .0065716
591.783 .0066507
592.563 .0067328
593.342 .0068149
594.121 .0068967
594.899 .0069801
595.678 .0070637
596.455 .0071476
597.233 .0072314
598.009 .0073173
598.786 .0074016
599.562 .0074843
600.338 .0075675
601.113 .0076504
601.888 .0077314
602.663 .0078123
603.437 .0078909
604.211 .0079680
604.984 .0080435
605.757 .0081175
606.530 .0081916
607.302 .0082649
608.074 .0083368
608.845 .0084403
609.616 .0085089
610.387 .0085766
611.158 .0086429
611.928 .0087087
612.697 .0087743
613.467 .0088384
614.236 .0089013
615.004 .0089630
615.773 .0090242
616.541 .0090848
617.308 .0091443
618.076 .0092037
618.843 .0092318
619.609 .0092906
620.375 .0093487
621.141 .0094060
621.907 .0094623
622.672 .0095171
623.437 .0095723
624.202 .0096277
624.966 .0096823
625.730 .0097361
626.493 .0097895
627.257 .0098427
628.020 .0098956
628.782 .0099484
629.545 .0100010
630.307 .0100532
631.068 .0101053
631.830 .0101569
632.591 .0102080
633.352 .0102584
634.112 .0103088
634.872 .0103589
635.632 .0104090
636.392 .0104581
637.151 .0105064
637.910 .0105538
638.668 .0106008
639.427 .0106475
640.185 .0106937
640.943 .0107392
641.700 .0107845
642.457 .0108298
643.214 .0108753
643.971 .0109204
644.727 .0109646
645.483 .0110084
646.239 .0110520
646.994 .0110952
647.750 .0111378
648.505 .0111801
649.259 .0112221
650.014 .0112634
650.768 .0113051
651.521 .0113468
652.275 .0113884
653.028 .0114301
653.781 .0114714
654.534 .0115121
655.286 .0115525
656.039 .0115923
656.791 .0116318
657.542 .0116712
658.294 .0117107
659.045 .0117497
659.796 .0117882
660.546 .0118266
661.297 .0118643
662.047 .0119014
662.796 .0119381
663.546 .0119744
664.295 .0120104
665.044 .0120461
665.793 .0120811
666.542 .0121160
667.290 .0121507
668.038 .0121848
668.786 .0122183
669.533 .0122515
670.281 .0122842
671.028 .0123160
671.774 .0123473
672.521 .0123774
673.267 .0124069
674.013 .0124362
674.759 .0124654
675.505 .0124941
676.250 .0125218
676.995 .0125494
677.740 .0125761
678.484 .0126024
679.229 .0126279
679.973 .0126522
680.717 .0126761
681.460 .0127002
682.204 .0127238
682.947 .0127469
683.690 .0127691
684.433 .0127905
685.175 .0128116
685.917 .0128324
686.659 .0128526
687.401 .0128719
688.142 .0128909
688.884 .0129097
689.625 .0129271
690.365 .0129440
691.106 .0129601
691.846 .0129757
692.586 .0129916
693.326 .0130063
694.066 .0130197
694.805 .0130321
695.545 .0130441
696.284 .0130559
697.022 .0130671
697.761 .0130781
698.499 .0130884
699.237 .0130983
699.975 .0131081
700.713 .0131168
701.450 .0131245
702.187 .0131314
702.924 .0131378
703.661 .0131430
704.397 .0131477
705.133 .0131514
705.869 .0131547
706.605 .0131569
707.341 .0131588
708.076 .0131596
708.811 .0131600
709.546 .0131598
710.281 .0131589
711.015 .0131576
711.749 .0131553
712.483 .0131517
713.217 .0131477
713.950 .0131434
714.684 .0131385
715.417 .0131327
716.150 .0131263
716.882 .0131189
717.615 .0131103
718.347 .0131011
719.079 .0130914
719.811 .0130806
720.542 .0130695
721.273 .0130570
722.005 .0130439
722.735 .0130295
723.466 .0130146
724.196 .0129988
724.927 .0129824
725.656 .0129650
726.386 .0129473
727.116 .0129287
727.845 .0129095
728.574 .0128897
729.303 .0128698
730.031 .0128493
730.760 .0128280
731.488 .0128066
732.216 .0127851
732.944 .0127632
733.671 .0127410
734.398 .0127186
735.125 .0126964
735.852 .0126737
736.579 .0126509
737.305 .0126283
738.031 .0126058
738.757 .0125831
739.483 .0125606
740.208 .0125380
740.933 .0125157
741.658 .0124930
742.383 .0124707
743.108 .0124485
743.832 .0124261
744.556 .0124038
745.280 .0123812
746.004 .0123586
746.727 .0123358
747.450 .0123129
748.173 .0122900
748.896 .0122670
749.618 .0122439
750.340 .0122207
751.062 .0121969
751.784 .0121727
752.506 .0121482
753.227 .0121236
753.948 .0120987
754.669 .0120735
755.389 .0120484
756.110 .0120230
756.830 .0119968
757.550 .0119702
758.269 .0119432
758.989 .0119161
759.708 .0118882
760.427 .0118598
761.146 .0118311
761.864 .0118020
762.582 .0117721
763.300 .0117421
764.018 .0117117
764.736 .0116811
765.453 .0116498
766.170 .0116181
766.887 .0115857
767.603 .0115525
768.320 .0115186
769.036 .0114658
769.751 .0114310
770.467 .0113956
771.182 .0113597
771.897 .0113237
772.612 .0112870
773.327 .0112499
774.041 .0112120
774.755 .0111734
775.469 .0111343
776.183 .0110949
776.896 .0110550
777.609 .0110147
778.322 .0109739
779.035 .0109529
779.747 .0109119
780.459 .0108706
781.171 .0108291
781.882 .0107873
782.594 .0107459
783.305 .0107042
784.016 .0106625
784.726 .0106203
785.436 .0105783
786.147 .0105363
786.856 .0104948
787.566 .0104534
788.275 .0104121
788.984 .0103706
789.693 .0103289
790.401 .0102872
791.110 .0102457
791.818 .0102040
792.525 .0101623
793.233 .0101206
793.940 .0100791
794.647 .0100373
795.353 .0099958
796.060 .0099541
796.766 .0099124
797.472 .0098704
798.177 .0098284
798.883 .0097861
799.588 .0097438
800.292 .0097013
800.997 .0096590
801.701 .0096170
802.405 .0095752
803.109 .0095331
803.812 .0094913
804.515 .0094493
805.218 .0094075
805.921 .0093654
806.623 .0093233
807.325 .0092807
808.027 .0092380
808.728 .0091953
809.429 .0091528
810.130 .0091101
810.831 .0090675
811.531 .0090249
812.231 .0089825
812.931 .0089402
813.630 .0088974
814.330 .0088543
815.029 .0088111
815.727 .0087675
816.426 .0087239
817.124 .0086803
817.821 .0086367
818.519 .0085928
819.216 .0085489
819.913 .0085048
820.609 .0084609
821.306 .0084167
822.002 .0083720
822.697 .0083269
823.393 .0082818
824.088 .0082364
824.783 .0081910
825.477 .0081459
826.171 .0081010
826.865 .0080563
827.559 .0080119
828.252 .0079674
828.945 .0079228
829.638 .0078783
830.330 .0078342
831.023 .0077905
831.714 .0077471
832.406 .0077036
833.097 .0076605
833.788 .0076183
834.479 .0075766
835.169 .0075356
835.859 .0074949
836.548 .0074544
837.238 .0074141
837.927 .0073743
838.615 .0073351
839.304 .0072965
839.992 .0072586
840.680 .0072208
841.367 .0071836
842.054 .0071469
842.741 .0071108
843.428 .0070749
844.114 .0070393
844.800 .0070037
845.485 .0069684
846.170 .0069330
846.855 .0068980
847.540 .0068633
848.224 .0068290
848.908 .0067950
849.592 .0067609
850.275 .0067270
850.958 .0066930
851.641 .0066592
852.323 .0066260
853.005 .0065926
853.687 .0065591
854.368 .0065257
855.049 .0064925
855.730 .0064601
856.410 .0064282
857.090 .0063963
857.769 .0063646
858.449 .0063327
859.128 .0063008
859.806 .0062690
860.485 .0062376
861.163 .0062066
861.840 .0061756
862.518 .0061447
863.195 .0061140
863.871 .0060836
864.548 .0060534
865.224 .0060234
865.899 .0059932
866.574 .0059627
867.249 .0059320
867.924 .0059010
868.598 .0058702
869.272 .0058398
869.946 .0058093
870.619 .0057790
871.292 .0057484
871.964 .0057175
872.636 .0056867
873.308 .0056559
873.979 .0056249
874.651 .0055937
875.321 .0055619
875.992 .0055300
876.662 .0054983
877.331 .0054670
878.001 .0054207
878.670 .0053900
879.338 .0053592
880.007 .0053283
880.675 .0052973
881.342 .0052664
882.009 .0052359
882.676 .0052055
883.343 .0051754
884.009 .0051455
884.675 .0051161
885.340 .0050874
886.005 .0050593
886.670 .0050319
887.334 .0050054
887.998 .0049939
888.662 .0049682
889.325 .0049430
889.988 .0049186
890.650 .0048948
891.312 .0048717
891.974 .0048492
892.636 .0048276
893.297 .0048068
893.957 .0047866
894.618 .0047673
895.278 .0047488
895.937 .0047305
896.596 .0047128
897.255 .0046955
897.914 .0046785
898.572 .0046622
899.230 .0046462
899.887 .0046309
900.544 .0046160
901.201 .0046014
901.857 .0045874
902.513 .0045739
903.168 .0045609
903.823 .0045484
904.478 .0045363
905.132 .0045244
905.786 .0045128
906.440 .0045015
907.093 .0044906
907.746 .0044801
908.399 .0044699
909.051 .0044598
909.703 .0044498
910.354 .0044399
911.005 .0044299
911.656 .0044205
912.306 .0044114
912.956 .0044022
913.605 .0043929
914.254 .0043835
914.903 .0043740
915.551 .0043642
916.199 .0043549
916.847 .0043456
917.494 .0043364
918.141 .0043271
918.788 .0043176
919.434 .0043083
920.079 .0042990
920.725 .0042900
921.370 .0042812
922.014 .0042724
922.658 .0042633
923.302 .0042540
923.946 .0042447
924.589 .0042355
925.231 .0042264
925.873 .0042172
926.515 .0042082
927.157 .0041986
927.798 .0041887
928.439 .0041786
929.079 .0041685
929.719 .0041584
930.359 .0041480
930.998 .0041374
931.637 .0041261
932.275 .0041145
932.913 .0041027
933.551 .0040908
934.188 .0040789
934.825 .0040671
935.462 .0040551
936.098 .0040427
936.733 .0040301
937.369 .0040172
938.004 .0040044
938.638 .0039914
939.273 .0039782
939.907 .0039647
940.540 .0039510
941.173 .0039370
941.806 .0039230
942.438 .0039090
943.070 .0038950
943.702 .0038807
944.333 .0038662
944.964 .0038514
945.594 .0038363
946.224 .0038210
946.854 .0038058
947.483 .0037908
948.112 .0037759
948.741 .0037609
949.369 .0037390
949.996 .0037241
950.624 .0037094
951.251 .0036950
951.878 .0036808
952.504 .0036666
953.130 .0036525
953.755 .0036385
954.380 .0036245
955.005 .0036107
955.629 .0035974
956.253 .0035841
956.877 .0035714
957.500 .0035585
958.123 .0035457
958.746 .0035332
959.368 .0035276
959.990 .0035157
960.611 .0035044
961.232 .0034935
961.853 .0034827
962.473 .0034719
963.093 .0034615
963.712 .0034513
964.331 .0034416
964.950 .0034321
965.569 .0034232
966.187 .0034147
966.804 .0034064
967.422 .0033982
968.039 .0033903
968.655 .0033826
969.272 .0033751
969.887 .0033678
970.503 .0033609
971.118 .0033541
971.733 .0033472
972.347 .0033406
972.961 .0033343
973.575 .0033283
974.188 .0033226
974.801 .0033171
975.414 .0033119
976.026 .0033070
976.638 .0033022
977.250 .0032973
977.861 .0032930
978.472 .0032893
979.083 .0032859
979.693 .0032827
980.303 .0032796
980.912 .0032766
981.521 .0032736
982.130 .0032710
982.738 .0032689
983.346 .0032668
983.954 .0032648
984.562 .0032628
985.169 .0032607
985.775 .0032587
986.382 .0032565
986.988 .0032543
987.594 .0032526
988.199 .0032505
988.804 .0032482
989.409 .0032459
990.013 .0032436
990.617 .0032415
991.221 .0032399
991.824 .0032384
992.427 .0032368
993.030 .0032351
993.632 .0032334
994.234 .0032317
994.836 .0032302
995.438 .0032290
996.039 .0032277
996.640 .0032270
997.240 .0032264
997.840 .0032259
998.440 .0032253
999.040 .0032250
999.639 .0032246
1000.238 .0032243
1000.836 .0032237
1001.435 .0032229
1002.033 .0032220
1002.630 .0032210
1003.228 .0032202
1003.825 .0032197
1004.422 .0032192
1005.018 .0032190
1005.614 .0032189
1006.210 .0032188
1006.806 .0032189
1007.401 .0032187
1007.996 .0032186
1008.591 .0032188
1009.186 .0032191
1009.780 .0032195
1010.374 .0032196
1010.967 .0032195
1011.561 .0032195
1012.154 .0032195
1012.746 .0032194
1013.339 .0032192
1013.931 .0032192
1014.523 .0032192
1015.115 .0032188
1015.706 .0032185
1016.298 .0032180
1016.888 .0032172
1017.479 .0032163
1018.069 .0032145
1018.660 .0032131
1019.250 .0032119
1019.839 .0032107
1020.429 .0032101
1021.018 .0032097
1021.607 .0032094
1022.195 .0032089
1022.784 .0032082
1023.372 .0032070
1023.960 .0032060
1024.547 .0032050
1025.135 .0032039
1025.722 .0032029
1026.309 .0032020
1026.896 .0032014
1027.483 .0032010
1028.069 .0032010
1028.655 .0032008
1029.241 .0032008
1029.827 .0032009
1030.412 .0032009
1030.997 .0032009
1031.582 .0032011
1032.167 .0032017
1032.752 .0032028
1033.336 .0032043
1033.921 .0032058
1034.505 .0032071
1035.089 .0032088
1035.672 .0032104
1036.256 .0032120
1036.839 .0032138
1037.422 .0032160
1038.005 .0032181
1038.588 .0032198
1039.171 .0032212
1039.753 .0032223
1040.335 .0032234
1040.918 .0032243
1041.500 .0032249
1042.081 .0032252
1042.663 .0032256
1043.244 .0032260
1043.826 .0032267
1044.407 .0032272
1044.988 .0032274
1045.569 .0032276
1046.150 .0032279
1046.730 .0032279
1047.311 .0032277
1047.891 .0032277
1048.471 .0032281
1049.052 .0032286
1049.632 .0032292
1050.211 .0032295
1050.791 .0032304
1051.371 .0032319
1051.950 .0032338
1052.530 .0032353
1053.109 .0032366
1053.688 .0032377
1054.268 .0032385
1054.847 .0032394
1055.426 .0032405
1056.005 .0032416
1056.583 .0032429
1057.162 .0032442
1057.741 .0032451
1058.319 .0032456
1058.898 .0032460
1059.476 .0032468
1060.055 .0032482
1060.633 .0032497
1061.211 .0032509
1061.790 .0032523
1062.368 .0032538
1062.946 .0032555
1063.524 .0032569
1064.102 .0032585
1064.680 .0032601
1065.258 .0032616
1065.836 .0032627
1066.414 .0032638
1066.992 .0032647
1067.570 .0032655
1068.148 .0032662
1068.726 .0032668
1069.304 .0032671
1069.882 .0032668
1070.460 .0032662
1071.038 .0032647
1071.616 .0032623
1072.194 .0032596
1072.772 .0032572
1073.350 .0032549
1073.928 .0032526
1074.506 .0032502
1075.084 .0032476
1075.662 .0032451
1076.240 .0032420
1076.819 .0032392
1077.397 .0032365
1077.976 .0032341
1078.554 .0032322
1079.133 .0032307
1079.711 .0032293
1080.290 .0032275
1080.869 .0032260
1081.448 .0032245
1082.027 .0032230
1082.606 .0032216
1083.185 .0032196
1083.764 .0032184
1084.343 .0032178
1084.923 .0032168
1085.502 .0032163
1086.082 .0032171
1086.662 .0032169
1087.242 .0032170
1087.822 .0032174
1088.402 .0032177
1088.983 .0032180
1089.563 .0032180
1090.144 .0032187
1090.725 .0032199
1091.306 .0032219
1091.887 .0032239
1092.469 .0032252
1093.050 .0032268
1093.632 .0032274
1094.214 .0032278
1094.796 .0032287
1095.379 .0032290
1095.961 .0032279
1096.544 .0032278
1097.127 .0032276
1097.710 .0032271
1098.294 .0032271
1098.877 .0032261
1099.461 .0032260
1100.046 .0032254
1100.630 .0032246
1101.215 .0032222
1101.800 .0032199
1102.385 .0032182
1102.970 .0032165
1103.556 .0032168
1104.142 .0032149
1104.728 .0032122
1105.315 .0032103
1105.902 .0032080
1106.489 .0032057
1107.077 .0032039
1107.664 .0032029
1108.253 .0032022
1108.841 .0032016
1109.430 .0032012
1110.019 .0032008
1110.609 .0032005
1111.198 .0032009
1111.789 .0032013
1112.379 .0032020
1112.970 .0032027
1113.561 .0032027
1114.153 .0032047
1114.745 .0032072
1115.338 .0032105
1115.931 .0032157
1116.524 .0032210
1117.117 .0032258
1117.712 .0032314
1118.306 .0032359
1118.901 .0032416
1119.496 .0032477
1120.092 .0032544
1120.689 .0032621
1121.285 .0032721
1121.882 .0032838
1122.480 .0032962
1123.078 .0033098
1123.677 .0033235
1124.276 .0033396
1124.875 .0033551
1125.476 .0033717
1126.076 .0033867
1126.677 .0034010
1127.279 .0034173
1127.881 .0034317
1128.484 .0034481
1129.087 .0034649
1129.691 .0034814
1130.295 .0034984
1130.900 .0035144
1131.505 .0035295
1132.111 .0035465
1132.718 .0035620
1133.325 .0035778
1133.933 .0036020
1134.541 .0036272
1135.150 .0037123
1135.760 .0036836
1136.370 .0036504
1136.981 .0037374
1137.592 .0037010
1138.204 .0037657
1138.817 .0037856
1139.431 .0037791
1140.045 .0038053
1140.660 .0037999
1141.275 .0037759
1141.891 .0038414
1142.508 .0037755
1143.126 .0037907
1143.744 .0040876
1144.363 .0041406
1144.983 .0038282
