Measurement Sequence started on: 15-12-46-377
Integration time: 28
Scans to Average: 2 
>>>>>Begin Spectral Data<<<<<
432.689 .0000100
433.621 .0000100
434.552 .0000100
435.482 .0000100
436.410 .0000100
437.337 .0000100
438.262 .0000100
439.187 .0000100
440.110 .0000100
441.031 .0000100
441.952 .0000100
442.871 .0303483
443.789 .0314307
444.705 .0324633
445.621 .0328536
446.535 .0337256
447.447 .0345690
448.359 .0354106
449.269 .0362254
450.178 .0370018
451.086 .0377630
451.993 .0385086
452.898 .0301632
453.803 .0264190
454.706 .0240705
455.608 .0236902
456.508 .0221731
457.408 .0209903
458.306 .0200297
459.204 .0192149
460.100 .0184962
460.995 .0178821
461.888 .0173485
462.781 .0169104
463.673 .0165128
464.563 .0161561
465.452 .0158361
466.340 .0155384
467.228 .0152828
468.114 .0150574
468.999 .0148301
469.882 .0146279
470.765 .0144578
471.647 .0142971
472.528 .0141540
473.407 .0140239
474.286 .0139103
475.163 .0138103
476.040 .0137180
476.915 .0136384
477.790 .0135616
478.663 .0134914
479.535 .0134284
480.407 .0133721
481.277 .0133370
482.147 .0133120
483.015 .0132886
483.883 .0132762
484.749 .0132652
485.615 .0132609
486.479 .0132670
487.343 .0132694
488.206 .0132720
489.067 .0132796
489.928 .0132894
490.788 .0133069
491.647 .0133335
492.505 .0133631
493.362 .0133956
494.218 .0134288
495.073 .0134757
495.928 .0135269
496.781 .0135781
497.634 .0136380
498.486 .0137052
499.337 .0137849
500.187 .0138733
501.036 .0139652
501.884 .0140672
502.731 .0141945
503.578 .0143342
504.424 .0144956
505.268 .0146608
506.113 .0148397
506.956 .0150298
507.798 .0152511
508.640 .0155034
509.480 .0157639
510.320 .0160367
511.160 .0163291
511.998 .0166392
512.836 .0172478
513.672 .0176485
514.508 .0180733
515.344 .0185567
516.178 .0190599
517.012 .0195947
517.845 .0201728
518.677 .0207821
519.508 .0214634
520.339 .0221968
521.169 .0229500
521.998 .0237247
522.826 .0241448
523.654 .0249164
524.481 .0256044
525.307 .0263004
526.133 .0269189
526.958 .0275204
527.782 .0281099
528.605 .0286319
529.428 .0290538
530.250 .0294090
531.072 .0296996
531.892 .0299189
532.712 .0300588
533.532 .0301107
534.350 .0301263
535.168 .0300545
535.986 .0298896
536.802 .0296953
537.618 .0294020
538.434 .0290524
539.249 .0286463
540.063 .0281392
540.876 .0275439
541.689 .0268944
542.501 .0261768
543.313 .0254718
544.124 .0246889
544.934 .0239621
545.744 .0232109
546.553 .0225049
547.361 .0217964
548.169 .0210632
548.976 .0203639
549.783 .0197521
550.589 .0191787
551.395 .0186458
552.200 .0181583
553.004 .0177004
553.808 .0172954
554.611 .0169018
555.414 .0165544
556.216 .0162334
557.018 .0159190
557.819 .0156583
558.619 .0153963
559.419 .0151448
560.218 .0149177
561.017 .0147153
561.815 .0145298
562.613 .0143693
563.410 .0142159
564.207 .0140755
565.003 .0139428
565.799 .0138113
566.594 .0136880
567.388 .0135738
568.182 .0134627
568.976 .0133509
569.769 .0132398
570.562 .0131391
571.354 .0130392
572.145 .0129411
572.936 .0128455
573.727 .0127499
574.517 .0126563
575.307 .0125656
576.096 .0124758
576.885 .0123862
577.673 .0123024
578.461 .0122254
579.248 .0121570
580.035 .0120887
580.821 .0120233
581.607 .0119644
582.392 .0119083
583.177 .0118596
583.962 .0118118
584.746 .0117669
585.529 .0117287
586.313 .0116982
587.095 .0116743
587.878 .0116527
588.660 .0116366
589.441 .0116243
590.222 .0116168
591.003 .0116117
591.783 .0116105
592.563 .0116109
593.342 .0116125
594.121 .0116151
594.899 .0116198
595.678 .0116275
596.455 .0116357
597.233 .0116458
598.009 .0116579
598.786 .0116692
599.562 .0116813
600.338 .0116934
601.113 .0117066
601.888 .0117204
602.663 .0117336
603.437 .0117475
604.211 .0117609
604.984 .0117740
605.757 .0117862
606.530 .0117982
607.302 .0118109
608.074 .0118235
608.845 .0118413
609.616 .0118525
610.387 .0118627
611.158 .0118734
611.928 .0118841
612.697 .0118945
613.467 .0119052
614.236 .0119159
615.004 .0119265
615.773 .0119373
616.541 .0119478
617.308 .0119576
618.076 .0119684
618.843 .0119740
619.609 .0119841
620.375 .0119941
621.141 .0120038
621.907 .0120139
622.672 .0120244
623.437 .0120352
624.202 .0120465
624.966 .0120573
625.730 .0120687
626.493 .0120797
627.257 .0120900
628.020 .0121001
628.782 .0121098
629.545 .0121191
630.307 .0121288
631.068 .0121385
631.830 .0121473
632.591 .0121567
633.352 .0121668
634.112 .0121772
634.872 .0121873
635.632 .0121973
636.392 .0122071
637.151 .0122162
637.910 .0122261
638.668 .0122355
639.427 .0122449
640.185 .0122551
640.943 .0122658
641.700 .0122763
642.457 .0122863
643.214 .0122961
643.971 .0123061
644.727 .0123163
645.483 .0123267
646.239 .0123365
646.994 .0123464
647.750 .0123561
648.505 .0123654
649.259 .0123745
650.014 .0123842
650.768 .0123938
651.521 .0124037
652.275 .0124138
653.028 .0124232
653.781 .0124321
654.534 .0124408
655.286 .0124495
656.039 .0124579
656.791 .0124658
657.542 .0124739
658.294 .0124808
659.045 .0124876
659.796 .0124940
660.546 .0125000
661.297 .0125056
662.047 .0125113
662.796 .0125171
663.546 .0125223
664.295 .0125267
665.044 .0125308
665.793 .0125347
666.542 .0125385
667.290 .0125422
668.038 .0125458
668.786 .0125499
669.533 .0125537
670.281 .0125569
671.028 .0125600
671.774 .0125626
672.521 .0125647
673.267 .0125669
674.013 .0125690
674.759 .0125707
675.505 .0125721
676.250 .0125736
676.995 .0125750
677.740 .0125758
678.484 .0125766
679.229 .0125777
679.973 .0125785
680.717 .0125791
681.460 .0125794
682.204 .0125797
682.947 .0125802
683.690 .0125808
684.433 .0125816
685.175 .0125826
685.917 .0125833
686.659 .0125842
687.401 .0125847
688.142 .0125852
688.884 .0125857
689.625 .0125865
690.365 .0125875
691.106 .0125883
691.846 .0125888
692.586 .0125894
693.326 .0125900
694.066 .0125901
694.805 .0125899
695.545 .0125897
696.284 .0125895
697.022 .0125892
697.761 .0125892
698.499 .0125891
699.237 .0125884
699.975 .0125880
700.713 .0125872
701.450 .0125861
702.187 .0125846
702.924 .0125827
703.661 .0125808
704.397 .0125783
705.133 .0125753
705.869 .0125722
706.605 .0125686
707.341 .0125652
708.076 .0125613
708.811 .0125565
709.546 .0125512
710.281 .0125449
711.015 .0125380
711.749 .0125307
712.483 .0125229
713.217 .0125144
713.950 .0125052
714.684 .0124958
715.417 .0124859
716.150 .0124753
716.882 .0124642
717.615 .0124524
718.347 .0124401
719.079 .0124275
719.811 .0124141
720.542 .0124002
721.273 .0123862
722.005 .0123720
722.735 .0123573
723.466 .0123425
724.196 .0123277
724.927 .0123125
725.656 .0122968
726.386 .0122813
727.116 .0122649
727.845 .0122482
728.574 .0122316
729.303 .0122148
730.031 .0121985
730.760 .0121822
731.488 .0121664
732.216 .0121506
732.944 .0121350
733.671 .0121198
734.398 .0121046
735.125 .0120898
735.852 .0120751
736.579 .0120608
737.305 .0120469
738.031 .0120338
738.757 .0120206
739.483 .0120082
740.208 .0119962
740.933 .0119843
741.658 .0119725
742.383 .0119608
743.108 .0119489
743.832 .0119366
744.556 .0119245
745.280 .0119127
746.004 .0119006
746.727 .0118886
747.450 .0118767
748.173 .0118650
748.896 .0118528
749.618 .0118403
750.340 .0118274
751.062 .0118147
751.784 .0118015
752.506 .0117884
753.227 .0117750
753.948 .0117610
754.669 .0117465
755.389 .0117321
756.110 .0117173
756.830 .0117020
757.550 .0116860
758.269 .0116701
758.989 .0116539
759.708 .0116368
760.427 .0116194
761.146 .0116014
761.864 .0115833
762.582 .0115647
763.300 .0115463
764.018 .0115279
764.736 .0115093
765.453 .0114908
766.170 .0114724
766.887 .0114541
767.603 .0114354
768.320 .0114168
769.036 .0113895
769.751 .0113714
770.467 .0113529
771.182 .0113347
771.897 .0113166
772.612 .0112986
773.327 .0112809
774.041 .0112632
774.755 .0112452
775.469 .0112268
776.183 .0112083
776.896 .0111895
777.609 .0111707
778.322 .0111518
779.035 .0111421
779.747 .0111234
780.459 .0111048
781.171 .0110861
781.882 .0110673
782.594 .0110485
783.305 .0110294
784.016 .0110099
784.726 .0109905
785.436 .0109706
786.147 .0109507
786.856 .0109309
787.566 .0109111
788.275 .0108913
788.984 .0108715
789.693 .0108512
790.401 .0108307
791.110 .0108100
791.818 .0107887
792.525 .0107671
793.233 .0107454
793.940 .0107233
794.647 .0107010
795.353 .0106784
796.060 .0106558
796.766 .0106333
797.472 .0106109
798.177 .0105881
798.883 .0105647
799.588 .0105408
800.292 .0105168
800.997 .0104927
801.701 .0104688
802.405 .0104450
803.109 .0104212
803.812 .0103977
804.515 .0103742
805.218 .0103507
805.921 .0103274
806.623 .0103039
807.325 .0102805
808.027 .0102571
808.728 .0102337
809.429 .0102099
810.130 .0101866
810.831 .0101633
811.531 .0101402
812.231 .0101173
812.931 .0100943
813.630 .0100712
814.330 .0100483
815.029 .0100253
815.727 .0100026
816.426 .0099800
817.124 .0099571
817.821 .0099341
818.519 .0099113
819.216 .0098887
819.913 .0098664
820.609 .0098443
821.306 .0098225
822.002 .0098007
822.697 .0097789
823.393 .0097573
824.088 .0097358
824.783 .0097146
825.477 .0096935
826.171 .0096727
826.865 .0096522
827.559 .0096317
828.252 .0096113
828.945 .0095913
829.638 .0095720
830.330 .0095527
831.023 .0095340
831.714 .0095153
832.406 .0094968
833.097 .0094789
833.788 .0094613
834.479 .0094440
835.169 .0094269
835.859 .0094103
836.548 .0093940
837.238 .0093781
837.927 .0093627
838.615 .0093473
839.304 .0093326
839.992 .0093180
840.680 .0093036
841.367 .0092890
842.054 .0092746
842.741 .0092602
843.428 .0092458
844.114 .0092314
844.800 .0092167
845.485 .0092019
846.170 .0091873
846.855 .0091726
847.540 .0091578
848.224 .0091429
848.908 .0091280
849.592 .0091129
850.275 .0090980
850.958 .0090828
851.641 .0090680
852.323 .0090532
853.005 .0090383
853.687 .0090234
854.368 .0090086
855.049 .0089942
855.730 .0089800
856.410 .0089660
857.090 .0089518
857.769 .0089376
858.449 .0089237
859.128 .0089096
859.806 .0088958
860.485 .0088819
861.163 .0088682
861.840 .0088543
862.518 .0088405
863.195 .0088267
863.871 .0088129
864.548 .0087994
865.224 .0087860
865.899 .0087724
866.574 .0087585
867.249 .0087442
867.924 .0087299
868.598 .0087159
869.272 .0087017
869.946 .0086875
870.619 .0086734
871.292 .0086590
871.964 .0086448
872.636 .0086306
873.308 .0086168
873.979 .0086031
874.651 .0085894
875.321 .0085754
875.992 .0085612
876.662 .0085474
877.331 .0085340
878.001 .0085149
878.670 .0085020
879.338 .0084890
880.007 .0084762
880.675 .0084636
881.342 .0084510
882.009 .0084384
882.676 .0084259
883.343 .0084133
884.009 .0084004
884.675 .0083871
885.340 .0083742
886.005 .0083616
886.670 .0083495
887.334 .0083377
887.998 .0083317
888.662 .0083197
889.325 .0083082
889.988 .0082966
890.650 .0082853
891.312 .0082741
891.974 .0082632
892.636 .0082526
893.297 .0082419
893.957 .0082311
894.618 .0082204
895.278 .0082103
895.937 .0082004
896.596 .0081902
897.255 .0081799
897.914 .0081693
898.572 .0081587
899.230 .0081479
899.887 .0081370
900.544 .0081261
901.201 .0081152
901.857 .0081042
902.513 .0080932
903.168 .0080822
903.823 .0080712
904.478 .0080604
905.132 .0080498
905.786 .0080392
906.440 .0080281
907.093 .0080169
907.746 .0080058
908.399 .0079943
909.051 .0079830
909.703 .0079715
910.354 .0079603
911.005 .0079489
911.656 .0079371
912.306 .0079251
912.956 .0079131
913.605 .0079010
914.254 .0078888
914.903 .0078764
915.551 .0078637
916.199 .0078512
916.847 .0078390
917.494 .0078269
918.141 .0078150
918.788 .0078032
919.434 .0077918
920.079 .0077808
920.725 .0077697
921.370 .0077590
922.014 .0077484
922.658 .0077383
923.302 .0077287
923.946 .0077194
924.589 .0077103
925.231 .0077015
925.873 .0076928
926.515 .0076845
927.157 .0076760
927.798 .0076675
928.439 .0076596
929.079 .0076519
929.719 .0076445
930.359 .0076371
930.998 .0076297
931.637 .0076227
932.275 .0076157
932.913 .0076089
933.551 .0076023
934.188 .0075959
934.825 .0075897
935.462 .0075836
936.098 .0075775
936.733 .0075718
937.369 .0075663
938.004 .0075616
938.638 .0075570
939.273 .0075523
939.907 .0075475
940.540 .0075429
941.173 .0075384
941.806 .0075341
942.438 .0075297
943.070 .0075253
943.702 .0075209
944.333 .0075165
944.964 .0075122
945.594 .0075081
946.224 .0075043
946.854 .0075009
947.483 .0074974
948.112 .0074939
948.741 .0074900
949.369 .0074844
949.996 .0074811
950.624 .0074780
951.251 .0074750
951.878 .0074724
952.504 .0074698
953.130 .0074672
953.755 .0074649
954.380 .0074626
955.005 .0074606
955.629 .0074584
956.253 .0074562
956.877 .0074542
957.500 .0074516
958.123 .0074492
958.746 .0074470
959.368 .0074463
959.990 .0074439
960.611 .0074417
961.232 .0074392
961.853 .0074367
962.473 .0074343
963.093 .0074318
963.712 .0074293
964.331 .0074268
964.950 .0074248
965.569 .0074228
966.187 .0074208
966.804 .0074183
967.422 .0074159
968.039 .0074135
968.655 .0074115
969.272 .0074093
969.887 .0074069
970.503 .0074044
971.118 .0074016
971.733 .0073991
972.347 .0073965
972.961 .0073939
973.575 .0073911
974.188 .0073882
974.801 .0073852
975.414 .0073820
976.026 .0073790
976.638 .0073760
977.250 .0073731
977.861 .0073703
978.472 .0073677
979.083 .0073650
979.693 .0073623
980.303 .0073599
980.912 .0073572
981.521 .0073549
982.130 .0073525
982.738 .0073501
983.346 .0073476
983.954 .0073452
984.562 .0073427
985.169 .0073398
985.775 .0073367
986.382 .0073332
986.988 .0073300
987.594 .0073270
988.199 .0073240
988.804 .0073208
989.409 .0073176
990.013 .0073141
990.617 .0073110
991.221 .0073080
991.824 .0073044
992.427 .0073008
993.030 .0072969
993.632 .0072929
994.234 .0072889
994.836 .0072850
995.438 .0072814
996.039 .0072779
996.640 .0072741
997.240 .0072702
997.840 .0072661
998.440 .0072619
999.040 .0072574
999.639 .0072528
1000.238 .0072486
1000.836 .0072444
1001.435 .0072401
1002.033 .0072359
1002.630 .0072315
1003.228 .0072274
1003.825 .0072233
1004.422 .0072194
1005.018 .0072154
1005.614 .0072115
1006.210 .0072079
1006.806 .0072047
1007.401 .0072011
1007.996 .0071976
1008.591 .0071942
1009.186 .0071911
1009.780 .0071884
1010.374 .0071854
1010.967 .0071820
1011.561 .0071791
1012.154 .0071763
1012.746 .0071737
1013.339 .0071714
1013.931 .0071693
1014.523 .0071673
1015.115 .0071649
1015.706 .0071627
1016.298 .0071606
1016.888 .0071585
1017.479 .0071566
1018.069 .0071540
1018.660 .0071520
1019.250 .0071504
1019.839 .0071484
1020.429 .0071465
1021.018 .0071446
1021.607 .0071425
1022.195 .0071410
1022.784 .0071394
1023.372 .0071377
1023.960 .0071362
1024.547 .0071349
1025.135 .0071335
1025.722 .0071318
1026.309 .0071295
1026.896 .0071273
1027.483 .0071250
1028.069 .0071233
1028.655 .0071210
1029.241 .0071183
1029.827 .0071150
1030.412 .0071121
1030.997 .0071096
1031.582 .0071073
1032.167 .0071044
1032.752 .0071014
1033.336 .0070985
1033.921 .0070956
1034.505 .0070927
1035.089 .0070900
1035.672 .0070869
1036.256 .0070840
1036.839 .0070811
1037.422 .0070785
1038.005 .0070757
1038.588 .0070730
1039.171 .0070702
1039.753 .0070676
1040.335 .0070649
1040.918 .0070620
1041.500 .0070593
1042.081 .0070569
1042.663 .0070544
1043.244 .0070517
1043.826 .0070490
1044.407 .0070461
1044.988 .0070434
1045.569 .0070412
1046.150 .0070397
1046.730 .0070384
1047.311 .0070369
1047.891 .0070359
1048.471 .0070351
1049.052 .0070348
1049.632 .0070344
1050.211 .0070346
1050.791 .0070348
1051.371 .0070349
1051.950 .0070350
1052.530 .0070354
1053.109 .0070360
1053.688 .0070367
1054.268 .0070373
1054.847 .0070378
1055.426 .0070388
1056.005 .0070394
1056.583 .0070401
1057.162 .0070413
1057.741 .0070423
1058.319 .0070439
1058.898 .0070455
1059.476 .0070482
1060.055 .0070504
1060.633 .0070525
1061.211 .0070547
1061.790 .0070565
1062.368 .0070588
1062.946 .0070610
1063.524 .0070633
1064.102 .0070656
1064.680 .0070683
1065.258 .0070707
1065.836 .0070734
1066.414 .0070762
1066.992 .0070784
1067.570 .0070808
1068.148 .0070834
1068.726 .0070859
1069.304 .0070879
1069.882 .0070903
1070.460 .0070932
1071.038 .0070956
1071.616 .0070988
1072.194 .0071018
1072.772 .0071049
1073.350 .0071080
1073.928 .0071108
1074.506 .0071132
1075.084 .0071154
1075.662 .0071167
1076.240 .0071181
1076.819 .0071196
1077.397 .0071203
1077.976 .0071208
1078.554 .0071211
1079.133 .0071216
1079.711 .0071215
1080.290 .0071216
1080.869 .0071221
1081.448 .0071231
1082.027 .0071244
1082.606 .0071257
1083.185 .0071272
1083.764 .0071291
1084.343 .0071317
1084.923 .0071339
1085.502 .0071369
1086.082 .0071394
1086.662 .0071419
1087.242 .0071458
1087.822 .0071498
1088.402 .0071537
1088.983 .0071573
1089.563 .0071619
1090.144 .0071666
1090.725 .0071708
1091.306 .0071747
1091.887 .0071783
1092.469 .0071809
1093.050 .0071835
1093.632 .0071863
1094.214 .0071888
1094.796 .0071924
1095.379 .0071964
1095.961 .0072009
1096.544 .0072062
1097.127 .0072113
1097.710 .0072165
1098.294 .0072217
1098.877 .0072269
1099.461 .0072321
1100.046 .0072373
1100.630 .0072436
1101.215 .0072507
1101.800 .0072570
1102.385 .0072648
1102.970 .0072717
1103.556 .0072749
1104.142 .0072828
1104.728 .0072903
1105.315 .0072988
1105.902 .0073066
1106.489 .0073155
1107.077 .0073258
1107.664 .0073359
1108.253 .0073472
1108.841 .0073598
1109.430 .0073734
1110.019 .0073866
1110.609 .0074008
1111.198 .0074157
1111.789 .0074315
1112.379 .0074482
1112.970 .0074650
1113.561 .0074909
1114.153 .0075105
1114.745 .0075322
1115.338 .0075545
1115.931 .0075781
1116.524 .0076023
1117.117 .0076252
1117.712 .0076486
1118.306 .0076709
1118.901 .0076911
1119.496 .0077118
1120.092 .0077336
1120.689 .0077540
1121.285 .0077713
1121.882 .0077888
1122.480 .0078060
1123.078 .0078268
1123.677 .0078448
1124.276 .0078644
1124.875 .0078803
1125.476 .0078944
1126.076 .0079088
1126.677 .0079236
1127.279 .0079406
1127.881 .0079577
1128.484 .0079772
1129.087 .0079992
1129.691 .0080221
1130.295 .0080450
1130.900 .0080669
1131.505 .0080939
1132.111 .0081199
1132.718 .0081495
1133.325 .0081876
1133.933 .0082233
1134.541 .0082629
1135.150 .0079482
1135.760 .0079945
1136.370 .0080684
1136.981 .0081504
1137.592 .0081996
1138.204 .0083333
1138.817 .0084450
1139.431 .0084798
1140.045 .0085237
1140.660 .0085226
1141.275 .0087022
1141.891 .0087113
1142.508 .0088004
1143.126 .0091592
1143.744 .0090658
1144.363 .0092884
1144.983 .0088580
