Measurement Sequence started on: 15-12-46-377
Integration time: 28
Scans to Average: 2 
>>>>>Begin Spectral Data<<<<<
432.689 .0000100
433.621 .0000100
434.552 .0000100
435.482 .0000100
436.410 .0000100
437.337 .0000100
438.262 .0000100
439.187 .0000100
440.110 .0000100
441.031 .0000100
441.952 .0000100
442.871 .0074353
443.789 .0076772
444.705 .0079040
445.621 .0079720
446.535 .0081742
447.447 .0083577
448.359 .0085444
449.269 .0087304
450.178 .0089249
451.086 .0091222
451.993 .0093086
452.898 .0068916
453.803 .0059820
454.706 .0055202
455.608 .0054442
456.508 .0051381
457.408 .0049162
458.306 .0047407
459.204 .0045967
460.100 .0044656
460.995 .0043538
461.888 .0042477
462.781 .0041811
463.673 .0041410
464.563 .0041129
465.452 .0040849
466.340 .0040554
467.228 .0040393
468.114 .0040470
468.999 .0040555
469.882 .0040582
470.765 .0040558
471.647 .0040478
472.528 .0040457
473.407 .0040479
474.286 .0040614
475.163 .0040664
476.040 .0040754
476.915 .0040912
477.790 .0040995
478.663 .0040994
479.535 .0041060
480.407 .0041159
481.277 .0041247
482.147 .0041452
483.015 .0041623
483.883 .0041744
484.749 .0041932
485.615 .0042155
486.479 .0042448
487.343 .0042753
488.206 .0043059
489.067 .0043316
489.928 .0043703
490.788 .0044099
491.647 .0044477
492.505 .0044898
493.362 .0045395
494.218 .0045878
495.073 .0046328
495.928 .0046884
496.781 .0047315
497.634 .0047719
498.486 .0048212
499.337 .0048670
500.187 .0049099
501.036 .0049514
501.884 .0049831
502.731 .0050113
503.578 .0050600
504.424 .0050934
505.268 .0051235
506.113 .0051553
506.956 .0051943
507.798 .0052250
508.640 .0052692
509.480 .0053306
510.320 .0053746
511.160 .0054346
511.998 .0055098
512.836 .0056533
513.672 .0057384
514.508 .0058280
515.344 .0059289
516.178 .0060132
517.012 .0061217
517.845 .0062556
518.677 .0064412
519.508 .0066376
520.339 .0068019
521.169 .0070087
521.998 .0072149
522.826 .0073117
523.654 .0074898
524.481 .0076210
525.307 .0077652
526.133 .0079428
526.958 .0080768
527.782 .0082695
528.605 .0084541
529.428 .0086120
530.250 .0088006
531.072 .0089444
531.892 .0090513
532.712 .0091121
533.532 .0091563
534.350 .0092239
535.168 .0092829
535.986 .0093197
536.802 .0093496
537.618 .0093438
538.434 .0092939
539.249 .0091863
540.063 .0090593
540.876 .0089657
541.689 .0088215
542.501 .0086721
543.313 .0085357
544.124 .0083797
544.934 .0082703
545.744 .0081579
546.553 .0080049
547.361 .0078805
548.169 .0076896
548.976 .0074790
549.783 .0072674
550.589 .0070488
551.395 .0068723
552.200 .0067252
553.004 .0066181
553.808 .0065107
554.611 .0063794
555.414 .0062566
556.216 .0061345
557.018 .0060383
557.819 .0059575
558.619 .0058850
559.419 .0058118
560.218 .0057466
561.017 .0056787
561.815 .0056197
562.613 .0055669
563.410 .0055244
564.207 .0054810
565.003 .0054454
565.799 .0054005
566.594 .0053551
567.388 .0053150
568.182 .0052835
568.976 .0052667
569.769 .0052574
570.562 .0052373
571.354 .0052122
572.145 .0051843
572.936 .0051623
573.727 .0051442
574.517 .0051312
575.307 .0051227
576.096 .0051166
576.885 .0051143
577.673 .0051171
578.461 .0051239
579.248 .0051440
580.035 .0051685
580.821 .0051986
581.607 .0052349
582.392 .0052738
583.177 .0053141
583.962 .0053631
584.746 .0054174
585.529 .0054759
586.313 .0055385
587.095 .0056030
587.878 .0056725
588.660 .0057467
589.441 .0058227
590.222 .0059018
591.003 .0059819
591.783 .0060620
592.563 .0061429
593.342 .0062242
594.121 .0063062
594.899 .0063870
595.678 .0064681
596.455 .0065504
597.233 .0066318
598.009 .0067134
598.786 .0067936
599.562 .0068731
600.338 .0069518
601.113 .0070291
601.888 .0071050
602.663 .0071804
603.437 .0072541
604.211 .0073266
604.984 .0073990
605.757 .0074707
606.530 .0075419
607.302 .0076122
608.074 .0076818
608.845 .0077797
609.616 .0078456
610.387 .0079101
611.158 .0079732
611.928 .0080359
612.697 .0080974
613.467 .0081595
614.236 .0082202
615.004 .0082806
615.773 .0083399
616.541 .0083997
617.308 .0084583
618.076 .0085160
618.843 .0085443
619.609 .0086009
620.375 .0086562
621.141 .0087115
621.907 .0087658
622.672 .0088197
623.437 .0088732
624.202 .0089268
624.966 .0089791
625.730 .0090309
626.493 .0090821
627.257 .0091322
628.020 .0091818
628.782 .0092319
629.545 .0092815
630.307 .0093299
631.068 .0093779
631.830 .0094256
632.591 .0094724
633.352 .0095191
634.112 .0095650
634.872 .0096109
635.632 .0096564
636.392 .0097016
637.151 .0097451
637.910 .0097890
638.668 .0098326
639.427 .0098751
640.185 .0099175
640.943 .0099599
641.700 .0100013
642.457 .0100419
643.214 .0100825
643.971 .0101231
644.727 .0101629
645.483 .0102029
646.239 .0102427
646.994 .0102824
647.750 .0103220
648.505 .0103614
649.259 .0104003
650.014 .0104396
650.768 .0104788
651.521 .0105178
652.275 .0105570
653.028 .0105958
653.781 .0106337
654.534 .0106713
655.286 .0107081
656.039 .0107444
656.791 .0107799
657.542 .0108155
658.294 .0108502
659.045 .0108842
659.796 .0109185
660.546 .0109524
661.297 .0109860
662.047 .0110195
662.796 .0110531
663.546 .0110861
664.295 .0111187
665.044 .0111516
665.793 .0111841
666.542 .0112168
667.290 .0112490
668.038 .0112811
668.786 .0113133
669.533 .0113447
670.281 .0113756
671.028 .0114066
671.774 .0114371
672.521 .0114667
673.267 .0114957
674.013 .0115245
674.759 .0115527
675.505 .0115803
676.250 .0116075
676.995 .0116344
677.740 .0116606
678.484 .0116864
679.229 .0117120
679.973 .0117368
680.717 .0117612
681.460 .0117850
682.204 .0118081
682.947 .0118304
683.690 .0118522
684.433 .0118734
685.175 .0118938
685.917 .0119138
686.659 .0119332
687.401 .0119522
688.142 .0119704
688.884 .0119876
689.625 .0120042
690.365 .0120199
691.106 .0120346
691.846 .0120483
692.586 .0120618
693.326 .0120746
694.066 .0120868
694.805 .0120986
695.545 .0121101
696.284 .0121212
697.022 .0121318
697.761 .0121420
698.499 .0121514
699.237 .0121599
699.975 .0121679
700.713 .0121749
701.450 .0121813
702.187 .0121871
702.924 .0121926
703.661 .0121973
704.397 .0122017
705.133 .0122054
705.869 .0122082
706.605 .0122101
707.341 .0122117
708.076 .0122122
708.811 .0122120
709.546 .0122111
710.281 .0122095
711.015 .0122072
711.749 .0122044
712.483 .0122005
713.217 .0121963
713.950 .0121917
714.684 .0121864
715.417 .0121804
716.150 .0121741
716.882 .0121665
717.615 .0121583
718.347 .0121495
719.079 .0121401
719.811 .0121298
720.542 .0121188
721.273 .0121074
722.005 .0120951
722.735 .0120824
723.466 .0120693
724.196 .0120554
724.927 .0120412
725.656 .0120264
726.386 .0120109
727.116 .0119944
727.845 .0119776
728.574 .0119601
729.303 .0119425
730.031 .0119244
730.760 .0119059
731.488 .0118873
732.216 .0118688
732.944 .0118502
733.671 .0118312
734.398 .0118120
735.125 .0117922
735.852 .0117719
736.579 .0117521
737.305 .0117321
738.031 .0117120
738.757 .0116920
739.483 .0116723
740.208 .0116526
740.933 .0116325
741.658 .0116125
742.383 .0115923
743.108 .0115720
743.832 .0115517
744.556 .0115311
745.280 .0115107
746.004 .0114904
746.727 .0114699
747.450 .0114496
748.173 .0114294
748.896 .0114088
749.618 .0113883
750.340 .0113674
751.062 .0113463
751.784 .0113250
752.506 .0113034
753.227 .0112816
753.948 .0112593
754.669 .0112370
755.389 .0112143
756.110 .0111909
756.830 .0111669
757.550 .0111420
758.269 .0111165
758.989 .0110907
759.708 .0110644
760.427 .0110375
761.146 .0110101
761.864 .0109821
762.582 .0109536
763.300 .0109244
764.018 .0108947
764.736 .0108643
765.453 .0108335
766.170 .0108023
766.887 .0107707
767.603 .0107386
768.320 .0107058
769.036 .0106553
769.751 .0106223
770.467 .0105889
771.182 .0105548
771.897 .0105202
772.612 .0104850
773.327 .0104493
774.041 .0104132
774.755 .0103766
775.469 .0103396
776.183 .0103025
776.896 .0102653
777.609 .0102279
778.322 .0101898
779.035 .0101703
779.747 .0101325
780.459 .0100944
781.171 .0100564
781.882 .0100183
782.594 .0099803
783.305 .0099421
784.016 .0099042
784.726 .0098663
785.436 .0098283
786.147 .0097903
786.856 .0097525
787.566 .0097148
788.275 .0096772
788.984 .0096395
789.693 .0096019
790.401 .0095642
791.110 .0095267
791.818 .0094889
792.525 .0094512
793.233 .0094139
793.940 .0093766
794.647 .0093389
795.353 .0093014
796.060 .0092640
796.766 .0092268
797.472 .0091899
798.177 .0091530
798.883 .0091162
799.588 .0090793
800.292 .0090421
800.997 .0090050
801.701 .0089678
802.405 .0089307
803.109 .0088932
803.812 .0088556
804.515 .0088180
805.218 .0087802
805.921 .0087422
806.623 .0087043
807.325 .0086659
808.027 .0086276
808.728 .0085891
809.429 .0085503
810.130 .0085114
810.831 .0084720
811.531 .0084324
812.231 .0083927
812.931 .0083530
813.630 .0083129
814.330 .0082727
815.029 .0082327
815.727 .0081926
816.426 .0081523
817.124 .0081117
817.821 .0080710
818.519 .0080301
819.216 .0079893
819.913 .0079483
820.609 .0079077
821.306 .0078669
822.002 .0078262
822.697 .0077855
823.393 .0077451
824.088 .0077051
824.783 .0076652
825.477 .0076253
826.171 .0075856
826.865 .0075459
827.559 .0075065
828.252 .0074671
828.945 .0074280
829.638 .0073892
830.330 .0073507
831.023 .0073127
831.714 .0072751
832.406 .0072377
833.097 .0072006
833.788 .0071638
834.479 .0071277
835.169 .0070918
835.859 .0070561
836.548 .0070207
837.238 .0069857
837.927 .0069513
838.615 .0069172
839.304 .0068835
839.992 .0068501
840.680 .0068169
841.367 .0067836
842.054 .0067507
842.741 .0067182
843.428 .0066856
844.114 .0066530
844.800 .0066205
845.485 .0065882
846.170 .0065562
846.855 .0065243
847.540 .0064926
848.224 .0064609
848.908 .0064295
849.592 .0063979
850.275 .0063662
850.958 .0063346
851.641 .0063031
852.323 .0062716
853.005 .0062405
853.687 .0062093
854.368 .0061780
855.049 .0061470
855.730 .0061163
856.410 .0060857
857.090 .0060550
857.769 .0060240
858.449 .0059931
859.128 .0059624
859.806 .0059319
860.485 .0059014
861.163 .0058716
861.840 .0058419
862.518 .0058120
863.195 .0057824
863.871 .0057530
864.548 .0057236
865.224 .0056943
865.899 .0056651
866.574 .0056357
867.249 .0056064
867.924 .0055773
868.598 .0055483
869.272 .0055199
869.946 .0054917
870.619 .0054634
871.292 .0054352
871.964 .0054072
872.636 .0053791
873.308 .0053513
873.979 .0053238
874.651 .0052963
875.321 .0052691
875.992 .0052420
876.662 .0052150
877.331 .0051886
878.001 .0051499
878.670 .0051238
879.338 .0050979
880.007 .0050723
880.675 .0050465
881.342 .0050208
882.009 .0049957
882.676 .0049708
883.343 .0049463
884.009 .0049222
884.675 .0048984
885.340 .0048749
886.005 .0048520
886.670 .0048296
887.334 .0048079
887.998 .0047983
888.662 .0047772
889.325 .0047561
889.988 .0047353
890.650 .0047149
891.312 .0046948
891.974 .0046755
892.636 .0046568
893.297 .0046384
893.957 .0046204
894.618 .0046028
895.278 .0045855
895.937 .0045686
896.596 .0045525
897.255 .0045368
897.914 .0045212
898.572 .0045060
899.230 .0044915
899.887 .0044773
900.544 .0044636
901.201 .0044507
901.857 .0044383
902.513 .0044263
903.168 .0044145
903.823 .0044028
904.478 .0043914
905.132 .0043803
905.786 .0043695
906.440 .0043589
907.093 .0043484
907.746 .0043379
908.399 .0043274
909.051 .0043172
909.703 .0043075
910.354 .0042978
911.005 .0042883
911.656 .0042790
912.306 .0042695
912.956 .0042600
913.605 .0042506
914.254 .0042413
914.903 .0042322
915.551 .0042232
916.199 .0042141
916.847 .0042052
917.494 .0041962
918.141 .0041873
918.788 .0041782
919.434 .0041691
920.079 .0041598
920.725 .0041501
921.370 .0041401
922.014 .0041300
922.658 .0041200
923.302 .0041100
923.946 .0041000
924.589 .0040900
925.231 .0040799
925.873 .0040697
926.515 .0040598
927.157 .0040496
927.798 .0040391
928.439 .0040289
929.079 .0040187
929.719 .0040083
930.359 .0039978
930.998 .0039874
931.637 .0039770
932.275 .0039667
932.913 .0039564
933.551 .0039459
934.188 .0039351
934.825 .0039243
935.462 .0039133
936.098 .0039019
936.733 .0038903
937.369 .0038787
938.004 .0038670
938.638 .0038553
939.273 .0038432
939.907 .0038308
940.540 .0038186
941.173 .0038063
941.806 .0037938
942.438 .0037809
943.070 .0037678
943.702 .0037546
944.333 .0037414
944.964 .0037281
945.594 .0037148
946.224 .0037011
946.854 .0036880
947.483 .0036747
948.112 .0036611
948.741 .0036476
949.369 .0036275
949.996 .0036145
950.624 .0036014
951.251 .0035884
951.878 .0035756
952.504 .0035629
953.130 .0035506
953.755 .0035385
954.380 .0035265
955.005 .0035147
955.629 .0035036
956.253 .0034925
956.877 .0034815
957.500 .0034708
958.123 .0034603
958.746 .0034501
959.368 .0034464
959.990 .0034371
960.611 .0034280
961.232 .0034193
961.853 .0034111
962.473 .0034031
963.093 .0033954
963.712 .0033882
964.331 .0033810
964.950 .0033738
965.569 .0033669
966.187 .0033600
966.804 .0033528
967.422 .0033461
968.039 .0033396
968.655 .0033332
969.272 .0033272
969.887 .0033213
970.503 .0033153
971.118 .0033093
971.733 .0033034
972.347 .0032976
972.961 .0032918
973.575 .0032860
974.188 .0032803
974.801 .0032748
975.414 .0032697
976.026 .0032646
976.638 .0032598
977.250 .0032557
977.861 .0032518
978.472 .0032484
979.083 .0032450
979.693 .0032415
980.303 .0032382
980.912 .0032349
981.521 .0032319
982.130 .0032290
982.738 .0032265
983.346 .0032240
983.954 .0032217
984.562 .0032198
985.169 .0032181
985.775 .0032164
986.382 .0032150
986.988 .0032137
987.594 .0032124
988.199 .0032111
988.804 .0032094
989.409 .0032079
990.013 .0032065
990.617 .0032053
991.221 .0032044
991.824 .0032034
992.427 .0032021
993.030 .0032007
993.632 .0031992
994.234 .0031980
994.836 .0031965
995.438 .0031950
996.039 .0031936
996.640 .0031920
997.240 .0031900
997.840 .0031879
998.440 .0031856
999.040 .0031834
999.639 .0031813
1000.238 .0031793
1000.836 .0031773
1001.435 .0031751
1002.033 .0031731
1002.630 .0031713
1003.228 .0031698
1003.825 .0031680
1004.422 .0031658
1005.018 .0031636
1005.614 .0031616
1006.210 .0031598
1006.806 .0031584
1007.401 .0031576
1007.996 .0031569
1008.591 .0031567
1009.186 .0031564
1009.780 .0031563
1010.374 .0031560
1010.967 .0031556
1011.561 .0031554
1012.154 .0031556
1012.746 .0031557
1013.339 .0031560
1013.931 .0031564
1014.523 .0031573
1015.115 .0031583
1015.706 .0031591
1016.298 .0031600
1016.888 .0031609
1017.479 .0031619
1018.069 .0031634
1018.660 .0031650
1019.250 .0031665
1019.839 .0031679
1020.429 .0031697
1021.018 .0031715
1021.607 .0031728
1022.195 .0031742
1022.784 .0031750
1023.372 .0031758
1023.960 .0031768
1024.547 .0031777
1025.135 .0031785
1025.722 .0031792
1026.309 .0031794
1026.896 .0031792
1027.483 .0031790
1028.069 .0031781
1028.655 .0031770
1029.241 .0031760
1029.827 .0031752
1030.412 .0031741
1030.997 .0031731
1031.582 .0031724
1032.167 .0031716
1032.752 .0031714
1033.336 .0031713
1033.921 .0031712
1034.505 .0031711
1035.089 .0031711
1035.672 .0031710
1036.256 .0031711
1036.839 .0031711
1037.422 .0031712
1038.005 .0031714
1038.588 .0031714
1039.171 .0031707
1039.753 .0031700
1040.335 .0031695
1040.918 .0031684
1041.500 .0031672
1042.081 .0031664
1042.663 .0031652
1043.244 .0031646
1043.826 .0031640
1044.407 .0031635
1044.988 .0031632
1045.569 .0031634
1046.150 .0031639
1046.730 .0031651
1047.311 .0031662
1047.891 .0031676
1048.471 .0031698
1049.052 .0031727
1049.632 .0031760
1050.211 .0031789
1050.791 .0031820
1051.371 .0031853
1051.950 .0031885
1052.530 .0031919
1053.109 .0031948
1053.688 .0031979
1054.268 .0032002
1054.847 .0032017
1055.426 .0032032
1056.005 .0032045
1056.583 .0032052
1057.162 .0032061
1057.741 .0032072
1058.319 .0032077
1058.898 .0032087
1059.476 .0032098
1060.055 .0032110
1060.633 .0032124
1061.211 .0032139
1061.790 .0032151
1062.368 .0032161
1062.946 .0032176
1063.524 .0032186
1064.102 .0032203
1064.680 .0032223
1065.258 .0032237
1065.836 .0032251
1066.414 .0032265
1066.992 .0032273
1067.570 .0032284
1068.148 .0032296
1068.726 .0032300
1069.304 .0032298
1069.882 .0032290
1070.460 .0032280
1071.038 .0032272
1071.616 .0032261
1072.194 .0032250
1072.772 .0032234
1073.350 .0032219
1073.928 .0032196
1074.506 .0032175
1075.084 .0032166
1075.662 .0032153
1076.240 .0032140
1076.819 .0032137
1077.397 .0032124
1077.976 .0032115
1078.554 .0032106
1079.133 .0032095
1079.711 .0032089
1080.290 .0032086
1080.869 .0032074
1081.448 .0032065
1082.027 .0032061
1082.606 .0032057
1083.185 .0032051
1083.764 .0032047
1084.343 .0032040
1084.923 .0032024
1085.502 .0032015
1086.082 .0032008
1086.662 .0031990
1087.242 .0031981
1087.822 .0031963
1088.402 .0031948
1088.983 .0031940
1089.563 .0031934
1090.144 .0031931
1090.725 .0031939
1091.306 .0031935
1091.887 .0031935
1092.469 .0031943
1093.050 .0031947
1093.632 .0031949
1094.214 .0031956
1094.796 .0031971
1095.379 .0031973
1095.961 .0031973
1096.544 .0031975
1097.127 .0031971
1097.710 .0031977
1098.294 .0031974
1098.877 .0031968
1099.461 .0031963
1100.046 .0031953
1100.630 .0031943
1101.215 .0031947
1101.800 .0031941
1102.385 .0031930
1102.970 .0031911
1103.556 .0031910
1104.142 .0031902
1104.728 .0031891
1105.315 .0031877
1105.902 .0031871
1106.489 .0031859
1107.077 .0031862
1107.664 .0031850
1108.253 .0031842
1108.841 .0031829
1109.430 .0031822
1110.019 .0031814
1110.609 .0031807
1111.198 .0031788
1111.789 .0031778
1112.379 .0031760
1112.970 .0031727
1113.561 .0031702
1114.153 .0031703
1114.745 .0031700
1115.338 .0031707
1115.931 .0031722
1116.524 .0031731
1117.117 .0031732
1117.712 .0031745
1118.306 .0031763
1118.901 .0031786
1119.496 .0031796
1120.092 .0031817
1120.689 .0031825
1121.285 .0031802
1121.882 .0031788
1122.480 .0031782
1123.078 .0031794
1123.677 .0031787
1124.276 .0031757
1124.875 .0031729
1125.476 .0031684
1126.076 .0031640
1126.677 .0031594
1127.279 .0031574
1127.881 .0031551
1128.484 .0031538
1129.087 .0031521
1129.691 .0031533
1130.295 .0031552
1130.900 .0031581
1131.505 .0031654
1132.111 .0031752
1132.718 .0031926
1133.325 .0032165
1133.933 .0032460
1134.541 .0032791
1135.150 .0030169
1135.760 .0030182
1136.370 .0030340
1136.981 .0030924
1137.592 .0030745
1138.204 .0031131
1138.817 .0031292
1139.431 .0032233
1140.045 .0032541
1140.660 .0032688
1141.275 .0034153
1141.891 .0034747
1142.508 .0037031
1143.126 .0039650
1143.744 .0041830
1144.363 .0043131
1144.983 .0048342
