Measurement Sequence started on: 15-12-46-377
Integration time: 28
Scans to Average: 2 
>>>>>Begin Spectral Data<<<<<
432.689 .0002229
433.621 .0000100
434.552 .0000100
435.482 .0000100
436.410 .0000100
437.337 .0000100
438.262 .0000100
439.187 .0000100
440.110 .0000100
441.031 .0000100
441.952 .0000100
442.871 .0092907
443.789 .0095809
444.705 .0098555
445.621 .0099355
446.535 .0101808
447.447 .0104210
448.359 .0106617
449.269 .0109003
450.178 .0111471
451.086 .0113998
451.993 .0116449
452.898 .0085939
453.803 .0074180
454.706 .0068001
455.608 .0067495
456.508 .0063987
457.408 .0061453
458.306 .0059324
459.204 .0057731
460.100 .0056588
460.995 .0055739
461.888 .0054991
462.781 .0054432
463.673 .0053976
464.563 .0053711
465.452 .0053341
466.340 .0053009
467.228 .0052826
468.114 .0052729
468.999 .0052606
469.882 .0052506
470.765 .0052287
471.647 .0051996
472.528 .0051800
473.407 .0051662
474.286 .0051515
475.163 .0051370
476.040 .0051174
476.915 .0050975
477.790 .0050786
478.663 .0050570
479.535 .0050349
480.407 .0050262
481.277 .0050182
482.147 .0050096
483.015 .0050035
483.883 .0049954
484.749 .0049818
485.615 .0049738
486.479 .0049729
487.343 .0049698
488.206 .0049633
489.067 .0049591
489.928 .0049533
490.788 .0049478
491.647 .0049439
492.505 .0049395
493.362 .0049495
494.218 .0049583
495.073 .0049622
495.928 .0049639
496.781 .0049739
497.634 .0049851
498.486 .0050012
499.337 .0050146
500.187 .0050234
501.036 .0050270
501.884 .0050244
502.731 .0050275
503.578 .0050330
504.424 .0050351
505.268 .0050360
506.113 .0050459
506.956 .0050622
507.798 .0050654
508.640 .0050643
509.480 .0050563
510.320 .0050577
511.160 .0050613
511.998 .0050689
512.836 .0050448
513.672 .0050438
514.508 .0050569
515.344 .0051016
516.178 .0051314
517.012 .0051533
517.845 .0052172
518.677 .0053064
519.508 .0053416
520.339 .0053524
521.169 .0053725
521.998 .0054370
522.826 .0054903
523.654 .0055896
524.481 .0056845
525.307 .0057773
526.133 .0059375
526.958 .0061407
527.782 .0063430
528.605 .0065232
529.428 .0066635
530.250 .0068321
531.072 .0069801
531.892 .0071128
532.712 .0072552
533.532 .0074206
534.350 .0075773
535.168 .0077114
535.986 .0077942
536.802 .0079070
537.618 .0079929
538.434 .0080275
539.249 .0080317
540.063 .0080847
540.876 .0081587
541.689 .0082225
542.501 .0082411
543.313 .0082596
544.124 .0082385
544.934 .0082269
545.744 .0082119
546.553 .0081185
547.361 .0079781
548.169 .0078420
548.976 .0077205
549.783 .0076503
550.589 .0075342
551.395 .0074360
552.200 .0073475
553.004 .0072575
553.808 .0071469
554.611 .0070270
555.414 .0069130
556.216 .0068131
557.018 .0066918
557.819 .0066042
558.619 .0065247
559.419 .0064512
560.218 .0063774
561.017 .0063134
561.815 .0062592
562.613 .0062053
563.410 .0061362
564.207 .0060751
565.003 .0060143
565.799 .0059605
566.594 .0059046
567.388 .0058465
568.182 .0057944
568.976 .0057551
569.769 .0057174
570.562 .0056919
571.354 .0056681
572.145 .0056481
572.936 .0056297
573.727 .0056166
574.517 .0056086
575.307 .0056087
576.096 .0056188
576.885 .0056354
577.673 .0056584
578.461 .0056898
579.248 .0057313
580.035 .0057822
580.821 .0058347
581.607 .0058900
582.392 .0059501
583.177 .0060208
583.962 .0061005
584.746 .0061833
585.529 .0062704
586.313 .0063646
587.095 .0064652
587.878 .0065735
588.660 .0066844
589.441 .0067962
590.222 .0069135
591.003 .0070346
591.783 .0071570
592.563 .0072810
593.342 .0074058
594.121 .0075327
594.899 .0076598
595.678 .0077876
596.455 .0079155
597.233 .0080408
598.009 .0081665
598.786 .0082923
599.562 .0084174
600.338 .0085414
601.113 .0086633
601.888 .0087838
602.663 .0089023
603.437 .0090187
604.211 .0091344
604.984 .0092491
605.757 .0093615
606.530 .0094724
607.302 .0095811
608.074 .0096887
608.845 .0098405
609.616 .0099426
610.387 .0100431
611.158 .0101420
611.928 .0102391
612.697 .0103345
613.467 .0104290
614.236 .0105219
615.004 .0106136
615.773 .0107044
616.541 .0107940
617.308 .0108816
618.076 .0109672
618.843 .0110082
619.609 .0110931
620.375 .0111768
621.141 .0112600
621.907 .0113419
622.672 .0114235
623.437 .0115038
624.202 .0115826
624.966 .0116600
625.730 .0117363
626.493 .0118116
627.257 .0118864
628.020 .0119610
628.782 .0120352
629.545 .0121089
630.307 .0121817
631.068 .0122544
631.830 .0123257
632.591 .0123960
633.352 .0124657
634.112 .0125341
634.872 .0126018
635.632 .0126689
636.392 .0127356
637.151 .0128018
637.910 .0128667
638.668 .0129315
639.427 .0129954
640.185 .0130586
640.943 .0131208
641.700 .0131821
642.457 .0132430
643.214 .0133033
643.971 .0133634
644.727 .0134231
645.483 .0134824
646.239 .0135415
646.994 .0136007
647.750 .0136594
648.505 .0137171
649.259 .0137740
650.014 .0138298
650.768 .0138851
651.521 .0139394
652.275 .0139939
653.028 .0140479
653.781 .0141009
654.534 .0141530
655.286 .0142043
656.039 .0142544
656.791 .0143035
657.542 .0143526
658.294 .0144017
659.045 .0144500
659.796 .0144976
660.546 .0145443
661.297 .0145907
662.047 .0146367
662.796 .0146827
663.546 .0147287
664.295 .0147744
665.044 .0148194
665.793 .0148637
666.542 .0149077
667.290 .0149513
668.038 .0149945
668.786 .0150375
669.533 .0150804
670.281 .0151228
671.028 .0151648
671.774 .0152064
672.521 .0152475
673.267 .0152884
674.013 .0153289
674.759 .0153691
675.505 .0154086
676.250 .0154474
676.995 .0154860
677.740 .0155235
678.484 .0155606
679.229 .0155969
679.973 .0156326
680.717 .0156670
681.460 .0157007
682.204 .0157339
682.947 .0157659
683.690 .0157967
684.433 .0158263
685.175 .0158557
685.917 .0158843
686.659 .0159118
687.401 .0159387
688.142 .0159647
688.884 .0159899
689.625 .0160137
690.365 .0160368
691.106 .0160592
691.846 .0160806
692.586 .0161014
693.326 .0161215
694.066 .0161409
694.805 .0161590
695.545 .0161764
696.284 .0161936
697.022 .0162096
697.761 .0162246
698.499 .0162386
699.237 .0162517
699.975 .0162640
700.713 .0162756
701.450 .0162865
702.187 .0162967
702.924 .0163058
703.661 .0163137
704.397 .0163206
705.133 .0163261
705.869 .0163308
706.605 .0163344
707.341 .0163367
708.076 .0163381
708.811 .0163378
709.546 .0163371
710.281 .0163350
711.015 .0163320
711.749 .0163278
712.483 .0163220
713.217 .0163149
713.950 .0163066
714.684 .0162975
715.417 .0162875
716.150 .0162765
716.882 .0162645
717.615 .0162516
718.347 .0162378
719.079 .0162230
719.811 .0162071
720.542 .0161903
721.273 .0161725
722.005 .0161533
722.735 .0161332
723.466 .0161123
724.196 .0160911
724.927 .0160692
725.656 .0160465
726.386 .0160231
727.116 .0159987
727.845 .0159737
728.574 .0159485
729.303 .0159224
730.031 .0158961
730.760 .0158693
731.488 .0158421
732.216 .0158149
732.944 .0157871
733.671 .0157587
734.398 .0157299
735.125 .0157007
735.852 .0156711
736.579 .0156413
737.305 .0156117
738.031 .0155818
738.757 .0155518
739.483 .0155218
740.208 .0154914
740.933 .0154607
741.658 .0154300
742.383 .0153991
743.108 .0153679
743.832 .0153365
744.556 .0153050
745.280 .0152739
746.004 .0152429
746.727 .0152122
747.450 .0151810
748.173 .0151496
748.896 .0151174
749.618 .0150849
750.340 .0150521
751.062 .0150189
751.784 .0149854
752.506 .0149518
753.227 .0149181
753.948 .0148842
754.669 .0148499
755.389 .0148155
756.110 .0147805
756.830 .0147444
757.550 .0147081
758.269 .0146710
758.989 .0146333
759.708 .0145957
760.427 .0145578
761.146 .0145198
761.864 .0144810
762.582 .0144419
763.300 .0144022
764.018 .0143617
764.736 .0143206
765.453 .0142788
766.170 .0142361
766.887 .0141928
767.603 .0141489
768.320 .0141049
769.036 .0140370
769.751 .0139923
770.467 .0139469
771.182 .0139012
771.897 .0138550
772.612 .0138082
773.327 .0137611
774.041 .0137137
774.755 .0136658
775.469 .0136173
776.183 .0135685
776.896 .0135194
777.609 .0134703
778.322 .0134214
779.035 .0133964
779.747 .0133465
780.459 .0132965
781.171 .0132461
781.882 .0131954
782.594 .0131449
783.305 .0130941
784.016 .0130432
784.726 .0129918
785.436 .0129402
786.147 .0128886
786.856 .0128373
787.566 .0127862
788.275 .0127348
788.984 .0126831
789.693 .0126313
790.401 .0125792
791.110 .0125272
791.818 .0124753
792.525 .0124231
793.233 .0123712
793.940 .0123193
794.647 .0122670
795.353 .0122146
796.060 .0121625
796.766 .0121105
797.472 .0120582
798.177 .0120056
798.883 .0119525
799.588 .0118992
800.292 .0118463
800.997 .0117936
801.701 .0117411
802.405 .0116883
803.109 .0116355
803.812 .0115829
804.515 .0115302
805.218 .0114774
805.921 .0114246
806.623 .0113720
807.325 .0113193
808.027 .0112662
808.728 .0112132
809.429 .0111604
810.130 .0111074
810.831 .0110546
811.531 .0110017
812.231 .0109486
812.931 .0108955
813.630 .0108421
814.330 .0107885
815.029 .0107347
815.727 .0106808
816.426 .0106266
817.124 .0105723
817.821 .0105178
818.519 .0104630
819.216 .0104083
819.913 .0103540
820.609 .0102996
821.306 .0102450
822.002 .0101904
822.697 .0101360
823.393 .0100819
824.088 .0100276
824.783 .0099735
825.477 .0099195
826.171 .0098657
826.865 .0098120
827.559 .0097585
828.252 .0097055
828.945 .0096529
829.638 .0096008
830.330 .0095493
831.023 .0094979
831.714 .0094467
832.406 .0093958
833.097 .0093454
833.788 .0092953
834.479 .0092456
835.169 .0091964
835.859 .0091478
836.548 .0090996
837.238 .0090519
837.927 .0090051
838.615 .0089589
839.304 .0089131
839.992 .0088675
840.680 .0088220
841.367 .0087769
842.054 .0087318
842.741 .0086873
843.428 .0086428
844.114 .0085987
844.800 .0085547
845.485 .0085111
846.170 .0084678
846.855 .0084248
847.540 .0083820
848.224 .0083393
848.908 .0082964
849.592 .0082534
850.275 .0082102
850.958 .0081674
851.641 .0081248
852.323 .0080825
853.005 .0080401
853.687 .0079978
854.368 .0079559
855.049 .0079144
855.730 .0078730
856.410 .0078320
857.090 .0077910
857.769 .0077500
858.449 .0077091
859.128 .0076685
859.806 .0076283
860.485 .0075887
861.163 .0075494
861.840 .0075105
862.518 .0074714
863.195 .0074328
863.871 .0073943
864.548 .0073563
865.224 .0073188
865.899 .0072813
866.574 .0072437
867.249 .0072063
867.924 .0071692
868.598 .0071325
869.272 .0070961
869.946 .0070600
870.619 .0070237
871.292 .0069874
871.964 .0069512
872.636 .0069149
873.308 .0068789
873.979 .0068432
874.651 .0068075
875.321 .0067719
875.992 .0067362
876.662 .0067006
877.331 .0066653
878.001 .0066131
878.670 .0065785
879.338 .0065441
880.007 .0065097
880.675 .0064757
881.342 .0064421
882.009 .0064089
882.676 .0063761
883.343 .0063438
884.009 .0063119
884.675 .0062802
885.340 .0062490
886.005 .0062183
886.670 .0061884
887.334 .0061590
887.998 .0061463
888.662 .0061178
889.325 .0060896
889.988 .0060620
890.650 .0060348
891.312 .0060084
891.974 .0059825
892.636 .0059577
893.297 .0059336
893.957 .0059098
894.618 .0058866
895.278 .0058642
895.937 .0058425
896.596 .0058217
897.255 .0058013
897.914 .0057815
898.572 .0057621
899.230 .0057435
899.887 .0057253
900.544 .0057076
901.201 .0056904
901.857 .0056737
902.513 .0056576
903.168 .0056419
903.823 .0056263
904.478 .0056111
905.132 .0055963
905.786 .0055817
906.440 .0055675
907.093 .0055533
907.746 .0055394
908.399 .0055256
909.051 .0055119
909.703 .0054986
910.354 .0054856
911.005 .0054728
911.656 .0054602
912.306 .0054479
912.956 .0054359
913.605 .0054236
914.254 .0054117
914.903 .0053998
915.551 .0053879
916.199 .0053760
916.847 .0053642
917.494 .0053523
918.141 .0053405
918.788 .0053288
919.434 .0053171
920.079 .0053053
920.725 .0052936
921.370 .0052815
922.014 .0052694
922.658 .0052573
923.302 .0052451
923.946 .0052329
924.589 .0052207
925.231 .0052081
925.873 .0051956
926.515 .0051830
927.157 .0051704
927.798 .0051580
928.439 .0051458
929.079 .0051333
929.719 .0051207
930.359 .0051080
930.998 .0050956
931.637 .0050830
932.275 .0050703
932.913 .0050573
933.551 .0050442
934.188 .0050309
934.825 .0050175
935.462 .0050039
936.098 .0049903
936.733 .0049767
937.369 .0049629
938.004 .0049491
938.638 .0049347
939.273 .0049201
939.907 .0049055
940.540 .0048908
941.173 .0048759
941.806 .0048609
942.438 .0048456
943.070 .0048302
943.702 .0048146
944.333 .0047990
944.964 .0047833
945.594 .0047673
946.224 .0047512
946.854 .0047351
947.483 .0047185
948.112 .0047019
948.741 .0046854
949.369 .0046609
949.996 .0046448
950.624 .0046287
951.251 .0046128
951.878 .0045969
952.504 .0045812
953.130 .0045657
953.755 .0045506
954.380 .0045358
955.005 .0045211
955.629 .0045068
956.253 .0044927
956.877 .0044789
957.500 .0044654
958.123 .0044527
958.746 .0044402
959.368 .0044354
959.990 .0044233
960.611 .0044115
961.232 .0044002
961.853 .0043891
962.473 .0043785
963.093 .0043680
963.712 .0043578
964.331 .0043481
964.950 .0043388
965.569 .0043301
966.187 .0043221
966.804 .0043143
967.422 .0043067
968.039 .0042995
968.655 .0042923
969.272 .0042850
969.887 .0042781
970.503 .0042712
971.118 .0042643
971.733 .0042574
972.347 .0042506
972.961 .0042438
973.575 .0042372
974.188 .0042305
974.801 .0042237
975.414 .0042171
976.026 .0042104
976.638 .0042038
977.250 .0041977
977.861 .0041918
978.472 .0041858
979.083 .0041799
979.693 .0041743
980.303 .0041690
980.912 .0041640
981.521 .0041591
982.130 .0041546
982.738 .0041505
983.346 .0041466
983.954 .0041432
984.562 .0041399
985.169 .0041367
985.775 .0041334
986.382 .0041298
986.988 .0041265
987.594 .0041231
988.199 .0041197
988.804 .0041164
989.409 .0041136
990.013 .0041106
990.617 .0041076
991.221 .0041047
991.824 .0041023
992.427 .0040998
993.030 .0040974
993.632 .0040951
994.234 .0040930
994.836 .0040912
995.438 .0040896
996.039 .0040884
996.640 .0040876
997.240 .0040867
997.840 .0040857
998.440 .0040851
999.040 .0040848
999.639 .0040843
1000.238 .0040839
1000.836 .0040838
1001.435 .0040837
1002.033 .0040835
1002.630 .0040832
1003.228 .0040829
1003.825 .0040826
1004.422 .0040820
1005.018 .0040815
1005.614 .0040812
1006.210 .0040810
1006.806 .0040809
1007.401 .0040808
1007.996 .0040807
1008.591 .0040804
1009.186 .0040800
1009.780 .0040800
1010.374 .0040803
1010.967 .0040808
1011.561 .0040813
1012.154 .0040818
1012.746 .0040825
1013.339 .0040834
1013.931 .0040843
1014.523 .0040850
1015.115 .0040856
1015.706 .0040858
1016.298 .0040857
1016.888 .0040853
1017.479 .0040848
1018.069 .0040837
1018.660 .0040830
1019.250 .0040824
1019.839 .0040817
1020.429 .0040807
1021.018 .0040797
1021.607 .0040786
1022.195 .0040776
1022.784 .0040769
1023.372 .0040764
1023.960 .0040762
1024.547 .0040765
1025.135 .0040766
1025.722 .0040767
1026.309 .0040772
1026.896 .0040782
1027.483 .0040797
1028.069 .0040814
1028.655 .0040831
1029.241 .0040850
1029.827 .0040864
1030.412 .0040880
1030.997 .0040892
1031.582 .0040905
1032.167 .0040918
1032.752 .0040928
1033.336 .0040935
1033.921 .0040945
1034.505 .0040954
1035.089 .0040969
1035.672 .0040987
1036.256 .0041003
1036.839 .0041015
1037.422 .0041030
1038.005 .0041043
1038.588 .0041061
1039.171 .0041080
1039.753 .0041104
1040.335 .0041129
1040.918 .0041158
1041.500 .0041192
1042.081 .0041226
1042.663 .0041260
1043.244 .0041293
1043.826 .0041324
1044.407 .0041356
1044.988 .0041384
1045.569 .0041411
1046.150 .0041437
1046.730 .0041459
1047.311 .0041478
1047.891 .0041497
1048.471 .0041511
1049.052 .0041522
1049.632 .0041532
1050.211 .0041542
1050.791 .0041549
1051.371 .0041554
1051.950 .0041563
1052.530 .0041570
1053.109 .0041579
1053.688 .0041585
1054.268 .0041587
1054.847 .0041588
1055.426 .0041584
1056.005 .0041579
1056.583 .0041578
1057.162 .0041581
1057.741 .0041581
1058.319 .0041579
1058.898 .0041573
1059.476 .0041566
1060.055 .0041552
1060.633 .0041533
1061.211 .0041510
1061.790 .0041475
1062.368 .0041445
1062.946 .0041404
1063.524 .0041362
1064.102 .0041316
1064.680 .0041268
1065.258 .0041222
1065.836 .0041179
1066.414 .0041136
1066.992 .0041092
1067.570 .0041052
1068.148 .0041011
1068.726 .0040977
1069.304 .0040947
1069.882 .0040922
1070.460 .0040893
1071.038 .0040869
1071.616 .0040852
1072.194 .0040829
1072.772 .0040817
1073.350 .0040807
1073.928 .0040799
1074.506 .0040798
1075.084 .0040796
1075.662 .0040790
1076.240 .0040786
1076.819 .0040785
1077.397 .0040780
1077.976 .0040781
1078.554 .0040786
1079.133 .0040793
1079.711 .0040797
1080.290 .0040811
1080.869 .0040826
1081.448 .0040840
1082.027 .0040852
1082.606 .0040861
1083.185 .0040876
1083.764 .0040894
1084.343 .0040910
1084.923 .0040928
1085.502 .0040946
1086.082 .0040962
1086.662 .0040974
1087.242 .0040991
1087.822 .0041003
1088.402 .0041012
1088.983 .0041019
1089.563 .0041029
1090.144 .0041041
1090.725 .0041052
1091.306 .0041070
1091.887 .0041095
1092.469 .0041116
1093.050 .0041134
1093.632 .0041155
1094.214 .0041173
1094.796 .0041196
1095.379 .0041229
1095.961 .0041263
1096.544 .0041295
1097.127 .0041329
1097.710 .0041370
1098.294 .0041406
1098.877 .0041435
1099.461 .0041454
1100.046 .0041467
1100.630 .0041483
1101.215 .0041496
1101.800 .0041507
1102.385 .0041534
1102.970 .0041566
1103.556 .0041585
1104.142 .0041617
1104.728 .0041654
1105.315 .0041691
1105.902 .0041716
1106.489 .0041746
1107.077 .0041787
1107.664 .0041822
1108.253 .0041853
1108.841 .0041883
1109.430 .0041929
1110.019 .0041984
1110.609 .0042041
1111.198 .0042109
1111.789 .0042165
1112.379 .0042218
1112.970 .0042268
1113.561 .0042327
1114.153 .0042375
1114.745 .0042420
1115.338 .0042452
1115.931 .0042507
1116.524 .0042565
1117.117 .0042620
1117.712 .0042671
1118.306 .0042734
1118.901 .0042803
1119.496 .0042868
1120.092 .0042936
1120.689 .0043004
1121.285 .0043060
1121.882 .0043125
1122.480 .0043186
1123.078 .0043265
1123.677 .0043344
1124.276 .0043403
1124.875 .0043482
1125.476 .0043577
1126.076 .0043662
1126.677 .0043742
1127.279 .0043824
1127.881 .0043900
1128.484 .0043979
1129.087 .0044064
1129.691 .0044131
1130.295 .0044202
1130.900 .0044263
1131.505 .0044340
1132.111 .0044397
1132.718 .0044496
1133.325 .0044582
1133.933 .0044691
1134.541 .0044837
1135.150 .0045021
1135.760 .0044821
1136.370 .0044901
1136.981 .0044884
1137.592 .0044493
1138.204 .0044495
1138.817 .0045293
1139.431 .0045186
1140.045 .0045498
1140.660 .0045393
1141.275 .0045827
1141.891 .0045382
1142.508 .0046537
1143.126 .0046041
1143.744 .0046920
1144.363 .0048303
1144.983 .0043312
