Measurement Sequence started on: 15-12-46-377
Integration time: 28
Scans to Average: 2 
>>>>>Begin Spectral Data<<<<<
432.689 .0055735
433.621 .0022953
434.552 .0020607
435.482 .0033283
436.410 .0016122
437.337 .0000000
438.262 .0000100
439.187 .0000100
440.110 .0000100
441.031 .0000100
441.952 .0000100
442.871 .0086520
443.789 .0088583
444.705 .0090453
445.621 .0090172
446.535 .0092000
447.447 .0094397
448.359 .0096779
449.269 .0099165
450.178 .0101541
451.086 .0103892
451.993 .0106228
452.898 .0085204
453.803 .0075418
454.706 .0069404
455.608 .0068476
456.508 .0064448
457.408 .0061043
458.306 .0058546
459.204 .0056529
460.100 .0054851
460.995 .0053456
461.888 .0052371
462.781 .0051634
463.673 .0050712
464.563 .0049988
465.452 .0049302
466.340 .0048574
467.228 .0047981
468.114 .0047595
468.999 .0047259
469.882 .0046901
470.765 .0046594
471.647 .0046330
472.528 .0046096
473.407 .0045858
474.286 .0045740
475.163 .0045554
476.040 .0045458
476.915 .0045364
477.790 .0045255
478.663 .0045261
479.535 .0045219
480.407 .0045246
481.277 .0045303
482.147 .0045385
483.015 .0045395
483.883 .0045462
484.749 .0045607
485.615 .0045746
486.479 .0045889
487.343 .0046059
488.206 .0046198
489.067 .0046259
489.928 .0046413
490.788 .0046546
491.647 .0046674
492.505 .0046849
493.362 .0047044
494.218 .0047321
495.073 .0047666
495.928 .0048023
496.781 .0048301
497.634 .0048604
498.486 .0048996
499.337 .0049407
500.187 .0049819
501.036 .0050304
501.884 .0050719
502.731 .0051233
503.578 .0051813
504.424 .0052368
505.268 .0052942
506.113 .0053527
506.956 .0053988
507.798 .0054450
508.640 .0054962
509.480 .0055265
510.320 .0055601
511.160 .0055982
511.998 .0056364
512.836 .0056719
513.672 .0057171
514.508 .0057511
515.344 .0058025
516.178 .0058521
517.012 .0059201
517.845 .0059926
518.677 .0060658
519.508 .0061459
520.339 .0062647
521.169 .0064625
521.998 .0066790
522.826 .0068772
523.654 .0071617
524.481 .0074744
525.307 .0077797
526.133 .0080585
526.958 .0082844
527.782 .0084428
528.605 .0085602
529.428 .0086392
530.250 .0086998
531.072 .0087275
531.892 .0087277
532.712 .0087168
533.532 .0086885
534.350 .0086262
535.168 .0085499
535.986 .0084299
536.802 .0083361
537.618 .0082109
538.434 .0080640
539.249 .0079173
540.063 .0077796
540.876 .0076101
541.689 .0073668
542.501 .0070949
543.313 .0068034
544.124 .0064527
544.934 .0060777
545.744 .0057133
546.553 .0053895
547.361 .0051261
548.169 .0049324
548.976 .0047800
549.783 .0046816
550.589 .0045942
551.395 .0045315
552.200 .0044965
553.004 .0044735
553.808 .0044614
554.611 .0044634
555.414 .0044874
556.216 .0045340
557.018 .0045621
557.819 .0046052
558.619 .0046604
559.419 .0047118
560.218 .0047413
561.017 .0047655
561.815 .0047925
562.613 .0048256
563.410 .0048597
564.207 .0048943
565.003 .0049300
565.799 .0049586
566.594 .0049746
567.388 .0049913
568.182 .0050038
568.976 .0050175
569.769 .0050331
570.562 .0050518
571.354 .0050731
572.145 .0050901
572.936 .0051134
573.727 .0051439
574.517 .0051773
575.307 .0052125
576.096 .0052535
576.885 .0052987
577.673 .0053474
578.461 .0053963
579.248 .0054488
580.035 .0055105
580.821 .0055725
581.607 .0056386
582.392 .0057075
583.177 .0057801
583.962 .0058583
584.746 .0059396
585.529 .0060310
586.313 .0061266
587.095 .0062270
587.878 .0063324
588.660 .0064407
589.441 .0065491
590.222 .0066615
591.003 .0067794
591.783 .0069004
592.563 .0070251
593.342 .0071516
594.121 .0072786
594.899 .0074084
595.678 .0075391
596.455 .0076697
597.233 .0077995
598.009 .0079293
598.786 .0080576
599.562 .0081841
600.338 .0083096
601.113 .0084339
601.888 .0085578
602.663 .0086794
603.437 .0087996
604.211 .0089174
604.984 .0090335
605.757 .0091474
606.530 .0092592
607.302 .0093695
608.074 .0094777
608.845 .0096327
609.616 .0097373
610.387 .0098401
611.158 .0099418
611.928 .0100420
612.697 .0101408
613.467 .0102379
614.236 .0103333
615.004 .0104267
615.773 .0105187
616.541 .0106097
617.308 .0106996
618.076 .0107890
618.843 .0108309
619.609 .0109189
620.375 .0110055
621.141 .0110909
621.907 .0111746
622.672 .0112568
623.437 .0113379
624.202 .0114183
624.966 .0114981
625.730 .0115770
626.493 .0116548
627.257 .0117319
628.020 .0118082
628.782 .0118837
629.545 .0119590
630.307 .0120332
631.068 .0121064
631.830 .0121778
632.591 .0122481
633.352 .0123175
634.112 .0123866
634.872 .0124555
635.632 .0125239
636.392 .0125919
637.151 .0126589
637.910 .0127247
638.668 .0127900
639.427 .0128547
640.185 .0129183
640.943 .0129810
641.700 .0130437
642.457 .0131059
643.214 .0131681
643.971 .0132296
644.727 .0132911
645.483 .0133521
646.239 .0134129
646.994 .0134736
647.750 .0135337
648.505 .0135935
649.259 .0136530
650.014 .0137119
650.768 .0137705
651.521 .0138281
652.275 .0138856
653.028 .0139429
653.781 .0139999
654.534 .0140559
655.286 .0141113
656.039 .0141660
656.791 .0142200
657.542 .0142740
658.294 .0143276
659.045 .0143793
659.796 .0144305
660.546 .0144816
661.297 .0145323
662.047 .0145816
662.796 .0146302
663.546 .0146774
664.295 .0147247
665.044 .0147716
665.793 .0148178
666.542 .0148636
667.290 .0149088
668.038 .0149533
668.786 .0149966
669.533 .0150392
670.281 .0150811
671.028 .0151224
671.774 .0151644
672.521 .0152058
673.267 .0152462
674.013 .0152856
674.759 .0153248
675.505 .0153635
676.250 .0154014
676.995 .0154387
677.740 .0154751
678.484 .0155112
679.229 .0155468
679.973 .0155816
680.717 .0156158
681.460 .0156495
682.204 .0156829
682.947 .0157157
683.690 .0157478
684.433 .0157786
685.175 .0158084
685.917 .0158371
686.659 .0158651
687.401 .0158924
688.142 .0159191
688.884 .0159457
689.625 .0159708
690.365 .0159950
691.106 .0160179
691.846 .0160395
692.586 .0160604
693.326 .0160801
694.066 .0160991
694.805 .0161169
695.545 .0161335
696.284 .0161496
697.022 .0161646
697.761 .0161783
698.499 .0161910
699.237 .0162032
699.975 .0162144
700.713 .0162241
701.450 .0162327
702.187 .0162406
702.924 .0162473
703.661 .0162531
704.397 .0162575
705.133 .0162606
705.869 .0162629
706.605 .0162645
707.341 .0162651
708.076 .0162643
708.811 .0162624
709.546 .0162598
710.281 .0162566
711.015 .0162526
711.749 .0162476
712.483 .0162415
713.217 .0162350
713.950 .0162273
714.684 .0162185
715.417 .0162091
716.150 .0161989
716.882 .0161879
717.615 .0161770
718.347 .0161649
719.079 .0161510
719.811 .0161362
720.542 .0161213
721.273 .0161052
722.005 .0160880
722.735 .0160703
723.466 .0160515
724.196 .0160320
724.927 .0160118
725.656 .0159906
726.386 .0159680
727.116 .0159450
727.845 .0159213
728.574 .0158969
729.303 .0158718
730.031 .0158456
730.760 .0158187
731.488 .0157916
732.216 .0157638
732.944 .0157352
733.671 .0157063
734.398 .0156769
735.125 .0156469
735.852 .0156162
736.579 .0155850
737.305 .0155533
738.031 .0155217
738.757 .0154907
739.483 .0154593
740.208 .0154270
740.933 .0153944
741.658 .0153616
742.383 .0153285
743.108 .0152955
743.832 .0152627
744.556 .0152296
745.280 .0151964
746.004 .0151629
746.727 .0151291
747.450 .0150948
748.173 .0150606
748.896 .0150262
749.618 .0149914
750.340 .0149564
751.062 .0149210
751.784 .0148852
752.506 .0148493
753.227 .0148130
753.948 .0147764
754.669 .0147395
755.389 .0147023
756.110 .0146645
756.830 .0146260
757.550 .0145871
758.269 .0145475
758.989 .0145075
759.708 .0144677
760.427 .0144275
761.146 .0143868
761.864 .0143460
762.582 .0143046
763.300 .0142624
764.018 .0142193
764.736 .0141761
765.453 .0141321
766.170 .0140881
766.887 .0140438
767.603 .0139988
768.320 .0139533
769.036 .0138838
769.751 .0138375
770.467 .0137907
771.182 .0137435
771.897 .0136959
772.612 .0136478
773.327 .0135991
774.041 .0135497
774.755 .0135002
775.469 .0134506
776.183 .0134009
776.896 .0133511
777.609 .0133011
778.322 .0132508
779.035 .0132248
779.747 .0131737
780.459 .0131221
781.171 .0130704
781.882 .0130184
782.594 .0129661
783.305 .0129138
784.016 .0128617
784.726 .0128094
785.436 .0127573
786.147 .0127047
786.856 .0126521
787.566 .0125996
788.275 .0125471
788.984 .0124943
789.693 .0124413
790.401 .0123882
791.110 .0123351
791.818 .0122820
792.525 .0122291
793.233 .0121764
793.940 .0121241
794.647 .0120719
795.353 .0120192
796.060 .0119664
796.766 .0119134
797.472 .0118600
798.177 .0118065
798.883 .0117527
799.588 .0116987
800.292 .0116446
800.997 .0115906
801.701 .0115365
802.405 .0114822
803.109 .0114279
803.812 .0113735
804.515 .0113191
805.218 .0112643
805.921 .0112093
806.623 .0111541
807.325 .0110990
808.027 .0110435
808.728 .0109877
809.429 .0109323
810.130 .0108766
810.831 .0108209
811.531 .0107649
812.231 .0107088
812.931 .0106526
813.630 .0105962
814.330 .0105396
815.029 .0104826
815.727 .0104258
816.426 .0103686
817.124 .0103114
817.821 .0102543
818.519 .0101973
819.216 .0101402
819.913 .0100832
820.609 .0100265
821.306 .0099697
822.002 .0099129
822.697 .0098562
823.393 .0097998
824.088 .0097437
824.783 .0096874
825.477 .0096315
826.171 .0095759
826.865 .0095206
827.559 .0094654
828.252 .0094109
828.945 .0093567
829.638 .0093025
830.330 .0092485
831.023 .0091953
831.714 .0091426
832.406 .0090903
833.097 .0090384
833.788 .0089870
834.479 .0089361
835.169 .0088856
835.859 .0088352
836.548 .0087854
837.238 .0087361
837.927 .0086871
838.615 .0086390
839.304 .0085913
839.992 .0085437
840.680 .0084963
841.367 .0084495
842.054 .0084032
842.741 .0083571
843.428 .0083113
844.114 .0082656
844.800 .0082204
845.485 .0081755
846.170 .0081309
846.855 .0080868
847.540 .0080432
848.224 .0079996
848.908 .0079562
849.592 .0079129
850.275 .0078696
850.958 .0078265
851.641 .0077836
852.323 .0077409
853.005 .0076984
853.687 .0076558
854.368 .0076135
855.049 .0075712
855.730 .0075297
856.410 .0074882
857.090 .0074467
857.769 .0074052
858.449 .0073634
859.128 .0073221
859.806 .0072815
860.485 .0072414
861.163 .0072017
861.840 .0071622
862.518 .0071230
863.195 .0070839
863.871 .0070453
864.548 .0070070
865.224 .0069688
865.899 .0069306
866.574 .0068927
867.249 .0068546
867.924 .0068168
868.598 .0067792
869.272 .0067420
869.946 .0067054
870.619 .0066688
871.292 .0066322
871.964 .0065955
872.636 .0065586
873.308 .0065219
873.979 .0064851
874.651 .0064488
875.321 .0064122
875.992 .0063759
876.662 .0063400
877.331 .0063046
878.001 .0062514
878.670 .0062165
879.338 .0061817
880.007 .0061470
880.675 .0061124
881.342 .0060778
882.009 .0060435
882.676 .0060095
883.343 .0059761
884.009 .0059430
884.675 .0059105
885.340 .0058788
886.005 .0058474
886.670 .0058167
887.334 .0057865
887.998 .0057732
888.662 .0057435
889.325 .0057145
889.988 .0056860
890.650 .0056581
891.312 .0056308
891.974 .0056042
892.636 .0055786
893.297 .0055536
893.957 .0055293
894.618 .0055058
895.278 .0054829
895.937 .0054607
896.596 .0054389
897.255 .0054175
897.914 .0053968
898.572 .0053770
899.230 .0053579
899.887 .0053393
900.544 .0053215
901.201 .0053043
901.857 .0052878
902.513 .0052719
903.168 .0052564
903.823 .0052411
904.478 .0052264
905.132 .0052122
905.786 .0051980
906.440 .0051842
907.093 .0051706
907.746 .0051575
908.399 .0051447
909.051 .0051322
909.703 .0051197
910.354 .0051073
911.005 .0050951
911.656 .0050827
912.306 .0050705
912.956 .0050584
913.605 .0050465
914.254 .0050348
914.903 .0050231
915.551 .0050115
916.199 .0049999
916.847 .0049883
917.494 .0049768
918.141 .0049653
918.788 .0049534
919.434 .0049415
920.079 .0049292
920.725 .0049169
921.370 .0049044
922.014 .0048917
922.658 .0048790
923.302 .0048662
923.946 .0048534
924.589 .0048403
925.231 .0048269
925.873 .0048133
926.515 .0047998
927.157 .0047860
927.798 .0047722
928.439 .0047584
929.079 .0047448
929.719 .0047311
930.359 .0047174
930.998 .0047037
931.637 .0046903
932.275 .0046766
932.913 .0046628
933.551 .0046490
934.188 .0046349
934.825 .0046204
935.462 .0046056
936.098 .0045910
936.733 .0045761
937.369 .0045609
938.004 .0045456
938.638 .0045298
939.273 .0045141
939.907 .0044980
940.540 .0044819
941.173 .0044657
941.806 .0044493
942.438 .0044326
943.070 .0044160
943.702 .0043994
944.333 .0043822
944.964 .0043653
945.594 .0043484
946.224 .0043315
946.854 .0043145
947.483 .0042973
948.112 .0042805
948.741 .0042636
949.369 .0042393
949.996 .0042231
950.624 .0042068
951.251 .0041904
951.878 .0041745
952.504 .0041586
953.130 .0041429
953.755 .0041276
954.380 .0041128
955.005 .0040983
955.629 .0040841
956.253 .0040702
956.877 .0040569
957.500 .0040441
958.123 .0040314
958.746 .0040189
959.368 .0040137
959.990 .0040017
960.611 .0039900
961.232 .0039786
961.853 .0039677
962.473 .0039571
963.093 .0039467
963.712 .0039364
964.331 .0039266
964.950 .0039170
965.569 .0039074
966.187 .0038981
966.804 .0038890
967.422 .0038802
968.039 .0038714
968.655 .0038630
969.272 .0038548
969.887 .0038467
970.503 .0038386
971.118 .0038307
971.733 .0038231
972.347 .0038158
972.961 .0038088
973.575 .0038020
974.188 .0037954
974.801 .0037890
975.414 .0037830
976.026 .0037772
976.638 .0037715
977.250 .0037660
977.861 .0037608
978.472 .0037560
979.083 .0037513
979.693 .0037465
980.303 .0037420
980.912 .0037380
981.521 .0037341
982.130 .0037305
982.738 .0037268
983.346 .0037231
983.954 .0037197
984.562 .0037166
985.169 .0037134
985.775 .0037104
986.382 .0037075
986.988 .0037047
987.594 .0037020
988.199 .0036991
988.804 .0036960
989.409 .0036933
990.013 .0036909
990.617 .0036885
991.221 .0036863
991.824 .0036842
992.427 .0036818
993.030 .0036797
993.632 .0036777
994.234 .0036755
994.836 .0036733
995.438 .0036711
996.039 .0036685
996.640 .0036663
997.240 .0036642
997.840 .0036620
998.440 .0036602
999.040 .0036587
999.639 .0036576
1000.238 .0036565
1000.836 .0036551
1001.435 .0036534
1002.033 .0036516
1002.630 .0036503
1003.228 .0036494
1003.825 .0036484
1004.422 .0036475
1005.018 .0036468
1005.614 .0036462
1006.210 .0036462
1006.806 .0036463
1007.401 .0036465
1007.996 .0036473
1008.591 .0036482
1009.186 .0036491
1009.780 .0036498
1010.374 .0036509
1010.967 .0036526
1011.561 .0036544
1012.154 .0036565
1012.746 .0036586
1013.339 .0036604
1013.931 .0036622
1014.523 .0036642
1015.115 .0036658
1015.706 .0036681
1016.298 .0036700
1016.888 .0036719
1017.479 .0036737
1018.069 .0036755
1018.660 .0036764
1019.250 .0036773
1019.839 .0036778
1020.429 .0036783
1021.018 .0036788
1021.607 .0036794
1022.195 .0036797
1022.784 .0036798
1023.372 .0036801
1023.960 .0036805
1024.547 .0036811
1025.135 .0036815
1025.722 .0036814
1026.309 .0036812
1026.896 .0036811
1027.483 .0036809
1028.069 .0036803
1028.655 .0036803
1029.241 .0036802
1029.827 .0036803
1030.412 .0036800
1030.997 .0036796
1031.582 .0036792
1032.167 .0036787
1032.752 .0036786
1033.336 .0036788
1033.921 .0036792
1034.505 .0036796
1035.089 .0036803
1035.672 .0036811
1036.256 .0036820
1036.839 .0036829
1037.422 .0036837
1038.005 .0036846
1038.588 .0036854
1039.171 .0036864
1039.753 .0036875
1040.335 .0036894
1040.918 .0036910
1041.500 .0036929
1042.081 .0036950
1042.663 .0036971
1043.244 .0036993
1043.826 .0037013
1044.407 .0037032
1044.988 .0037048
1045.569 .0037067
1046.150 .0037087
1046.730 .0037109
1047.311 .0037127
1047.891 .0037147
1048.471 .0037169
1049.052 .0037191
1049.632 .0037216
1050.211 .0037235
1050.791 .0037261
1051.371 .0037280
1051.950 .0037294
1052.530 .0037309
1053.109 .0037315
1053.688 .0037323
1054.268 .0037330
1054.847 .0037335
1055.426 .0037340
1056.005 .0037343
1056.583 .0037345
1057.162 .0037355
1057.741 .0037364
1058.319 .0037374
1058.898 .0037384
1059.476 .0037392
1060.055 .0037401
1060.633 .0037405
1061.211 .0037413
1061.790 .0037420
1062.368 .0037422
1062.946 .0037432
1063.524 .0037440
1064.102 .0037454
1064.680 .0037468
1065.258 .0037483
1065.836 .0037495
1066.414 .0037505
1066.992 .0037511
1067.570 .0037522
1068.148 .0037527
1068.726 .0037532
1069.304 .0037538
1069.882 .0037538
1070.460 .0037541
1071.038 .0037536
1071.616 .0037537
1072.194 .0037547
1072.772 .0037549
1073.350 .0037557
1073.928 .0037556
1074.506 .0037557
1075.084 .0037551
1075.662 .0037545
1076.240 .0037540
1076.819 .0037535
1077.397 .0037521
1077.976 .0037510
1078.554 .0037500
1079.133 .0037482
1079.711 .0037470
1080.290 .0037458
1080.869 .0037451
1081.448 .0037443
1082.027 .0037435
1082.606 .0037431
1083.185 .0037422
1083.764 .0037413
1084.343 .0037398
1084.923 .0037386
1085.502 .0037374
1086.082 .0037365
1086.662 .0037362
1087.242 .0037357
1087.822 .0037349
1088.402 .0037338
1088.983 .0037333
1089.563 .0037324
1090.144 .0037317
1090.725 .0037312
1091.306 .0037302
1091.887 .0037286
1092.469 .0037265
1093.050 .0037242
1093.632 .0037224
1094.214 .0037216
1094.796 .0037210
1095.379 .0037212
1095.961 .0037210
1096.544 .0037203
1097.127 .0037201
1097.710 .0037202
1098.294 .0037200
1098.877 .0037201
1099.461 .0037205
1100.046 .0037214
1100.630 .0037215
1101.215 .0037225
1101.800 .0037230
1102.385 .0037237
1102.970 .0037248
1103.556 .0037246
1104.142 .0037258
1104.728 .0037250
1105.315 .0037237
1105.902 .0037221
1106.489 .0037206
1107.077 .0037188
1107.664 .0037191
1108.253 .0037203
1108.841 .0037237
1109.430 .0037257
1110.019 .0037273
1110.609 .0037295
1111.198 .0037320
1111.789 .0037340
1112.379 .0037373
1112.970 .0037397
1113.561 .0037448
1114.153 .0037465
1114.745 .0037512
1115.338 .0037558
1115.931 .0037607
1116.524 .0037656
1117.117 .0037696
1117.712 .0037732
1118.306 .0037764
1118.901 .0037779
1119.496 .0037802
1120.092 .0037818
1120.689 .0037826
1121.285 .0037831
1121.882 .0037848
1122.480 .0037866
1123.078 .0037889
1123.677 .0037903
1124.276 .0037963
1124.875 .0038024
1125.476 .0038087
1126.076 .0038150
1126.677 .0038210
1127.279 .0038273
1127.881 .0038324
1128.484 .0038342
1129.087 .0038369
1129.691 .0038406
1130.295 .0038469
1130.900 .0038525
1131.505 .0038585
1132.111 .0038636
1132.718 .0038672
1133.325 .0038705
1133.933 .0038834
1134.541 .0038899
1135.150 .0038852
1135.760 .0038933
1136.370 .0038903
1136.981 .0039495
1137.592 .0039446
1138.204 .0038908
1138.817 .0038912
1139.431 .0039251
1140.045 .0040180
1140.660 .0040082
1141.275 .0039837
1141.891 .0039808
1142.508 .0039023
1143.126 .0039069
1143.744 .0041989
1144.363 .0040914
1144.983 .0046330
