Measurement Sequence started on: 15-12-46-377
Integration time: 28
Scans to Average: 2 
>>>>>Begin Spectral Data<<<<<
432.689 .0000100
433.621 .0000100
434.552 .0000100
435.482 .0000100
436.410 .0000100
437.337 .0000100
438.262 .0000100
439.187 .0000100
440.110 .0000100
441.031 .0000100
441.952 .0000100
442.871 .0555636
443.789 .0574313
444.705 .0592194
445.621 .0598148
446.535 .0613744
447.447 .0628900
448.359 .0643773
449.269 .0658295
450.178 .0672558
451.086 .0686526
451.993 .0700117
452.898 .0538718
453.803 .0467770
454.706 .0425924
455.608 .0419693
456.508 .0391970
457.408 .0370657
458.306 .0353718
459.204 .0340215
460.100 .0329121
460.995 .0319692
461.888 .0311586
462.781 .0304452
463.673 .0298322
464.563 .0292866
465.452 .0287558
466.340 .0282862
467.228 .0278577
468.114 .0274629
468.999 .0270916
469.882 .0267554
470.765 .0264381
471.647 .0261543
472.528 .0259117
473.407 .0256871
474.286 .0254658
475.163 .0252662
476.040 .0250905
476.915 .0249394
477.790 .0248074
478.663 .0246845
479.535 .0245735
480.407 .0244865
481.277 .0244186
482.147 .0243705
483.015 .0243282
483.883 .0242987
484.749 .0242715
485.615 .0242621
486.479 .0242526
487.343 .0242506
488.206 .0242598
489.067 .0242837
489.928 .0243218
490.788 .0243743
491.647 .0244263
492.505 .0244790
493.362 .0245284
494.218 .0245933
495.073 .0246709
495.928 .0247442
496.781 .0248155
497.634 .0249078
498.486 .0250130
499.337 .0251284
500.187 .0252544
501.036 .0253973
501.884 .0255430
502.731 .0257076
503.578 .0258816
504.424 .0260669
505.268 .0262728
506.113 .0265133
506.956 .0267826
507.798 .0271072
508.640 .0274620
509.480 .0278403
510.320 .0282791
511.160 .0287770
511.998 .0293234
512.836 .0304714
513.672 .0312615
514.508 .0321413
515.344 .0331363
516.178 .0342735
517.012 .0355580
517.845 .0369967
518.677 .0385813
519.508 .0403499
520.339 .0423051
521.169 .0444146
521.998 .0466341
522.826 .0481327
523.654 .0505596
524.481 .0529298
525.307 .0552390
526.133 .0573854
526.958 .0594316
527.782 .0613192
528.605 .0630094
529.428 .0644464
530.250 .0655742
531.072 .0664598
531.892 .0671454
532.712 .0675710
533.532 .0677582
534.350 .0677536
535.168 .0675315
535.986 .0671093
536.802 .0664720
537.618 .0655959
538.434 .0645164
539.249 .0632444
540.063 .0617547
540.876 .0600225
541.689 .0581029
542.501 .0560196
543.313 .0538126
544.124 .0513843
544.934 .0489979
545.744 .0466265
546.553 .0443900
547.361 .0422161
548.169 .0401292
548.976 .0381925
549.783 .0364704
550.589 .0349866
551.395 .0336736
552.200 .0324976
553.004 .0314899
553.808 .0306213
554.611 .0298440
555.414 .0291747
556.216 .0285842
557.018 .0280602
557.819 .0276065
558.619 .0271806
559.419 .0267855
560.218 .0264069
561.017 .0260702
561.815 .0257554
562.613 .0254718
563.410 .0251927
564.207 .0249253
565.003 .0246552
565.799 .0243959
566.594 .0241294
567.388 .0238662
568.182 .0236141
568.976 .0233651
569.769 .0231152
570.562 .0228671
571.354 .0226273
572.145 .0223964
572.936 .0221742
573.727 .0219600
574.517 .0217484
575.307 .0215443
576.096 .0213468
576.885 .0211602
577.673 .0209835
578.461 .0208217
579.248 .0206699
580.035 .0205318
580.821 .0203957
581.607 .0202644
582.392 .0201399
583.177 .0200271
583.962 .0199218
584.746 .0198247
585.529 .0197376
586.313 .0196595
587.095 .0195851
587.878 .0195169
588.660 .0194552
589.441 .0193954
590.222 .0193407
591.003 .0192905
591.783 .0192440
592.563 .0192023
593.342 .0191636
594.121 .0191313
594.899 .0191034
595.678 .0190775
596.455 .0190529
597.233 .0190311
598.009 .0190106
598.786 .0189916
599.562 .0189738
600.338 .0189594
601.113 .0189467
601.888 .0189337
602.663 .0189223
603.437 .0189115
604.211 .0189016
604.984 .0188923
605.757 .0188830
606.530 .0188750
607.302 .0188680
608.074 .0188608
608.845 .0188513
609.616 .0188456
610.387 .0188392
611.158 .0188334
611.928 .0188274
612.697 .0188217
613.467 .0188169
614.236 .0188112
615.004 .0188063
615.773 .0188021
616.541 .0187978
617.308 .0187934
618.076 .0187888
618.843 .0187871
619.609 .0187828
620.375 .0187774
621.141 .0187720
621.907 .0187669
622.672 .0187623
623.437 .0187584
624.202 .0187544
624.966 .0187509
625.730 .0187468
626.493 .0187422
627.257 .0187378
628.020 .0187340
628.782 .0187301
629.545 .0187264
630.307 .0187225
631.068 .0187186
631.830 .0187148
632.591 .0187112
633.352 .0187074
634.112 .0187029
634.872 .0186987
635.632 .0186946
636.392 .0186894
637.151 .0186845
637.910 .0186792
638.668 .0186738
639.427 .0186688
640.185 .0186642
640.943 .0186603
641.700 .0186567
642.457 .0186531
643.214 .0186497
643.971 .0186458
644.727 .0186426
645.483 .0186400
646.239 .0186381
646.994 .0186371
647.750 .0186365
648.505 .0186353
649.259 .0186347
650.014 .0186339
650.768 .0186335
651.521 .0186333
652.275 .0186336
653.028 .0186335
653.781 .0186329
654.534 .0186322
655.286 .0186319
656.039 .0186313
656.791 .0186316
657.542 .0186317
658.294 .0186321
659.045 .0186327
659.796 .0186333
660.546 .0186339
661.297 .0186344
662.047 .0186347
662.796 .0186348
663.546 .0186348
664.295 .0186350
665.044 .0186348
665.793 .0186344
666.542 .0186341
667.290 .0186341
668.038 .0186338
668.786 .0186334
669.533 .0186328
670.281 .0186319
671.028 .0186306
671.774 .0186297
672.521 .0186278
673.267 .0186258
674.013 .0186238
674.759 .0186222
675.505 .0186205
676.250 .0186190
676.995 .0186175
677.740 .0186154
678.484 .0186131
679.229 .0186100
679.973 .0186061
680.717 .0186017
681.460 .0185966
682.204 .0185913
682.947 .0185861
683.690 .0185803
684.433 .0185735
685.175 .0185667
685.917 .0185593
686.659 .0185516
687.401 .0185430
688.142 .0185342
688.884 .0185250
689.625 .0185150
690.365 .0185047
691.106 .0184947
691.846 .0184841
692.586 .0184737
693.326 .0184630
694.066 .0184523
694.805 .0184411
695.545 .0184298
696.284 .0184182
697.022 .0184062
697.761 .0183943
698.499 .0183822
699.237 .0183704
699.975 .0183585
700.713 .0183468
701.450 .0183351
702.187 .0183235
702.924 .0183121
703.661 .0183002
704.397 .0182888
705.133 .0182769
705.869 .0182650
706.605 .0182533
707.341 .0182416
708.076 .0182294
708.811 .0182167
709.546 .0182049
710.281 .0181932
711.015 .0181817
711.749 .0181700
712.483 .0181583
713.217 .0181463
713.950 .0181342
714.684 .0181226
715.417 .0181108
716.150 .0180994
716.882 .0180885
717.615 .0180781
718.347 .0180679
719.079 .0180572
719.811 .0180468
720.542 .0180362
721.273 .0180262
722.005 .0180158
722.735 .0180053
723.466 .0179950
724.196 .0179850
724.927 .0179755
725.656 .0179665
726.386 .0179573
727.116 .0179480
727.845 .0179385
728.574 .0179295
729.303 .0179204
730.031 .0179113
730.760 .0179022
731.488 .0178939
732.216 .0178857
732.944 .0178783
733.671 .0178715
734.398 .0178646
735.125 .0178576
735.852 .0178508
736.579 .0178436
737.305 .0178362
738.031 .0178285
738.757 .0178217
739.483 .0178153
740.208 .0178092
740.933 .0178025
741.658 .0177958
742.383 .0177890
743.108 .0177819
743.832 .0177749
744.556 .0177675
745.280 .0177598
746.004 .0177515
746.727 .0177433
747.450 .0177354
748.173 .0177270
748.896 .0177184
749.618 .0177096
750.340 .0177003
751.062 .0176903
751.784 .0176803
752.506 .0176700
753.227 .0176595
753.948 .0176485
754.669 .0176374
755.389 .0176257
756.110 .0176137
756.830 .0176012
757.550 .0175884
758.269 .0175752
758.989 .0175612
759.708 .0175467
760.427 .0175320
761.146 .0175171
761.864 .0175018
762.582 .0174863
763.300 .0174705
764.018 .0174536
764.736 .0174363
765.453 .0174192
766.170 .0174022
766.887 .0173850
767.603 .0173681
768.320 .0173508
769.036 .0173244
769.751 .0173075
770.467 .0172905
771.182 .0172735
771.897 .0172561
772.612 .0172383
773.327 .0172208
774.041 .0172033
774.755 .0171858
775.469 .0171686
776.183 .0171517
776.896 .0171350
777.609 .0171181
778.322 .0171015
779.035 .0170941
779.747 .0170778
780.459 .0170617
781.171 .0170458
781.882 .0170301
782.594 .0170145
783.305 .0169988
784.016 .0169840
784.726 .0169697
785.436 .0169557
786.147 .0169415
786.856 .0169272
787.566 .0169129
788.275 .0168987
788.984 .0168845
789.693 .0168700
790.401 .0168553
791.110 .0168403
791.818 .0168252
792.525 .0168100
793.233 .0167945
793.940 .0167791
794.647 .0167638
795.353 .0167485
796.060 .0167329
796.766 .0167174
797.472 .0167020
798.177 .0166873
798.883 .0166729
799.588 .0166585
800.292 .0166444
800.997 .0166307
801.701 .0166173
802.405 .0166044
803.109 .0165921
803.812 .0165804
804.515 .0165691
805.218 .0165580
805.921 .0165468
806.623 .0165359
807.325 .0165258
808.027 .0165161
808.728 .0165064
809.429 .0164968
810.130 .0164873
810.831 .0164779
811.531 .0164689
812.231 .0164596
812.931 .0164502
813.630 .0164411
814.330 .0164316
815.029 .0164219
815.727 .0164122
816.426 .0164028
817.124 .0163938
817.821 .0163848
818.519 .0163757
819.216 .0163665
819.913 .0163574
820.609 .0163488
821.306 .0163399
822.002 .0163310
822.697 .0163221
823.393 .0163134
824.088 .0163051
824.783 .0162969
825.477 .0162891
826.171 .0162818
826.865 .0162748
827.559 .0162676
828.252 .0162603
828.945 .0162532
829.638 .0162462
830.330 .0162393
831.023 .0162326
831.714 .0162258
832.406 .0162192
833.097 .0162131
833.788 .0162075
834.479 .0162019
835.169 .0161964
835.859 .0161907
836.548 .0161847
837.238 .0161781
837.927 .0161712
838.615 .0161638
839.304 .0161563
839.992 .0161484
840.680 .0161401
841.367 .0161317
842.054 .0161228
842.741 .0161135
843.428 .0161035
844.114 .0160926
844.800 .0160808
845.485 .0160683
846.170 .0160554
846.855 .0160420
847.540 .0160281
848.224 .0160142
848.908 .0160001
849.592 .0159856
850.275 .0159712
850.958 .0159565
851.641 .0159416
852.323 .0159263
853.005 .0159104
853.687 .0158942
854.368 .0158778
855.049 .0158613
855.730 .0158449
856.410 .0158281
857.090 .0158109
857.769 .0157933
858.449 .0157754
859.128 .0157572
859.806 .0157386
860.485 .0157194
861.163 .0157000
861.840 .0156804
862.518 .0156603
863.195 .0156400
863.871 .0156198
864.548 .0155997
865.224 .0155799
865.899 .0155596
866.574 .0155394
867.249 .0155193
867.924 .0154993
868.598 .0154795
869.272 .0154602
869.946 .0154410
870.619 .0154220
871.292 .0154033
871.964 .0153854
872.636 .0153678
873.308 .0153503
873.979 .0153331
874.651 .0153163
875.321 .0153000
875.992 .0152844
876.662 .0152695
877.331 .0152555
878.001 .0152371
878.670 .0152244
879.338 .0152122
880.007 .0152005
880.675 .0151893
881.342 .0151785
882.009 .0151684
882.676 .0151590
883.343 .0151502
884.009 .0151418
884.675 .0151339
885.340 .0151265
886.005 .0151193
886.670 .0151126
887.334 .0151062
887.998 .0151039
888.662 .0150978
889.325 .0150919
889.988 .0150863
890.650 .0150811
891.312 .0150761
891.974 .0150714
892.636 .0150669
893.297 .0150632
893.957 .0150601
894.618 .0150570
895.278 .0150541
895.937 .0150514
896.596 .0150490
897.255 .0150466
897.914 .0150441
898.572 .0150420
899.230 .0150401
899.887 .0150385
900.544 .0150369
901.201 .0150353
901.857 .0150339
902.513 .0150324
903.168 .0150311
903.823 .0150293
904.478 .0150275
905.132 .0150252
905.786 .0150227
906.440 .0150199
907.093 .0150170
907.746 .0150141
908.399 .0150113
909.051 .0150088
909.703 .0150062
910.354 .0150031
911.005 .0149997
911.656 .0149966
912.306 .0149935
912.956 .0149904
913.605 .0149871
914.254 .0149840
914.903 .0149812
915.551 .0149779
916.199 .0149745
916.847 .0149718
917.494 .0149694
918.141 .0149673
918.788 .0149654
919.434 .0149635
920.079 .0149613
920.725 .0149595
921.370 .0149580
922.014 .0149566
922.658 .0149553
923.302 .0149543
923.946 .0149538
924.589 .0149535
925.231 .0149533
925.873 .0149538
926.515 .0149547
927.157 .0149558
927.798 .0149569
928.439 .0149578
929.079 .0149586
929.719 .0149595
930.359 .0149608
930.998 .0149620
931.637 .0149628
932.275 .0149634
932.913 .0149642
933.551 .0149647
934.188 .0149647
934.825 .0149643
935.462 .0149640
936.098 .0149634
936.733 .0149619
937.369 .0149602
938.004 .0149582
938.638 .0149553
939.273 .0149524
939.907 .0149494
940.540 .0149462
941.173 .0149425
941.806 .0149385
942.438 .0149342
943.070 .0149296
943.702 .0149241
944.333 .0149184
944.964 .0149126
945.594 .0149065
946.224 .0149001
946.854 .0148934
947.483 .0148863
948.112 .0148789
948.741 .0148712
949.369 .0148591
949.996 .0148508
950.624 .0148421
951.251 .0148332
951.878 .0148239
952.504 .0148143
953.130 .0148041
953.755 .0147940
954.380 .0147837
955.005 .0147733
955.629 .0147627
956.253 .0147519
956.877 .0147408
957.500 .0147295
958.123 .0147183
958.746 .0147069
959.368 .0147006
959.990 .0146890
960.611 .0146774
961.232 .0146657
961.853 .0146538
962.473 .0146419
963.093 .0146297
963.712 .0146179
964.331 .0146058
964.950 .0145931
965.569 .0145799
966.187 .0145668
966.804 .0145532
967.422 .0145392
968.039 .0145251
968.655 .0145108
969.272 .0144960
969.887 .0144806
970.503 .0144649
971.118 .0144494
971.733 .0144338
972.347 .0144186
972.961 .0144031
973.575 .0143878
974.188 .0143723
974.801 .0143568
975.414 .0143417
976.026 .0143269
976.638 .0143117
977.250 .0142969
977.861 .0142827
978.472 .0142688
979.083 .0142549
979.693 .0142410
980.303 .0142275
980.912 .0142140
981.521 .0142003
982.130 .0141872
982.738 .0141741
983.346 .0141615
983.954 .0141488
984.562 .0141364
985.169 .0141244
985.775 .0141127
986.382 .0141009
986.988 .0140897
987.594 .0140788
988.199 .0140681
988.804 .0140574
989.409 .0140472
990.013 .0140372
990.617 .0140278
991.221 .0140183
991.824 .0140094
992.427 .0140004
993.030 .0139914
993.632 .0139825
994.234 .0139736
994.836 .0139648
995.438 .0139563
996.039 .0139480
996.640 .0139404
997.240 .0139325
997.840 .0139247
998.440 .0139169
999.040 .0139096
999.639 .0139023
1000.238 .0138956
1000.836 .0138888
1001.435 .0138827
1002.033 .0138769
1002.630 .0138713
1003.228 .0138659
1003.825 .0138610
1004.422 .0138568
1005.018 .0138529
1005.614 .0138490
1006.210 .0138455
1006.806 .0138422
1007.401 .0138394
1007.996 .0138373
1008.591 .0138359
1009.186 .0138351
1009.780 .0138348
1010.374 .0138349
1010.967 .0138358
1011.561 .0138374
1012.154 .0138393
1012.746 .0138419
1013.339 .0138454
1013.931 .0138494
1014.523 .0138539
1015.115 .0138589
1015.706 .0138642
1016.298 .0138700
1016.888 .0138766
1017.479 .0138835
1018.069 .0138951
1018.660 .0139019
1019.250 .0139097
1019.839 .0139172
1020.429 .0139254
1021.018 .0139334
1021.607 .0139411
1022.195 .0139489
1022.784 .0139569
1023.372 .0139644
1023.960 .0139714
1024.547 .0139783
1025.135 .0139859
1025.722 .0139936
1026.309 .0140014
1026.896 .0140097
1027.483 .0140177
1028.069 .0140209
1028.655 .0140284
1029.241 .0140355
1029.827 .0140424
1030.412 .0140499
1030.997 .0140572
1031.582 .0140646
1032.167 .0140717
1032.752 .0140794
1033.336 .0140875
1033.921 .0140961
1034.505 .0141050
1035.089 .0141134
1035.672 .0141216
1036.256 .0141299
1036.839 .0141377
1037.422 .0141457
1038.005 .0141542
1038.588 .0141626
1039.171 .0141718
1039.753 .0141809
1040.335 .0141896
1040.918 .0141981
1041.500 .0142070
1042.081 .0142165
1042.663 .0142259
1043.244 .0142356
1043.826 .0142453
1044.407 .0142560
1044.988 .0142672
1045.569 .0142785
1046.150 .0142901
1046.730 .0143018
1047.311 .0143133
1047.891 .0143248
1048.471 .0143372
1049.052 .0143501
1049.632 .0143642
1050.211 .0143783
1050.791 .0143925
1051.371 .0144062
1051.950 .0144200
1052.530 .0144335
1053.109 .0144466
1053.688 .0144594
1054.268 .0144717
1054.847 .0144838
1055.426 .0144958
1056.005 .0145083
1056.583 .0145202
1057.162 .0145321
1057.741 .0145437
1058.319 .0145545
1058.898 .0145654
1059.476 .0145751
1060.055 .0145848
1060.633 .0145942
1061.211 .0146036
1061.790 .0146121
1062.368 .0146208
1062.946 .0146296
1063.524 .0146377
1064.102 .0146455
1064.680 .0146524
1065.258 .0146585
1065.836 .0146632
1066.414 .0146688
1066.992 .0146747
1067.570 .0146807
1068.148 .0146868
1068.726 .0146910
1069.304 .0146954
1069.882 .0146989
1070.460 .0147027
1071.038 .0147063
1071.616 .0147100
1072.194 .0147129
1072.772 .0147157
1073.350 .0147182
1073.928 .0147195
1074.506 .0147208
1075.084 .0147221
1075.662 .0147230
1076.240 .0147228
1076.819 .0147220
1077.397 .0147213
1077.976 .0147205
1078.554 .0147206
1079.133 .0147201
1079.711 .0147205
1080.290 .0147201
1080.869 .0147200
1081.448 .0147202
1082.027 .0147207
1082.606 .0147210
1083.185 .0147222
1083.764 .0147240
1084.343 .0147258
1084.923 .0147279
1085.502 .0147306
1086.082 .0147340
1086.662 .0147364
1087.242 .0147378
1087.822 .0147393
1088.402 .0147401
1088.983 .0147427
1089.563 .0147444
1090.144 .0147463
1090.725 .0147486
1091.306 .0147506
1091.887 .0147529
1092.469 .0147550
1093.050 .0147565
1093.632 .0147592
1094.214 .0147633
1094.796 .0147667
1095.379 .0147704
1095.961 .0147748
1096.544 .0147801
1097.127 .0147859
1097.710 .0147916
1098.294 .0147987
1098.877 .0148041
1099.461 .0148109
1100.046 .0148178
1100.630 .0148244
1101.215 .0148315
1101.800 .0148381
1102.385 .0148452
1102.970 .0148515
1103.556 .0148540
1104.142 .0148596
1104.728 .0148662
1105.315 .0148748
1105.902 .0148855
1106.489 .0148951
1107.077 .0149048
1107.664 .0149165
1108.253 .0149291
1108.841 .0149419
1109.430 .0149537
1110.019 .0149659
1110.609 .0149795
1111.198 .0149931
1111.789 .0150085
1112.379 .0150256
1112.970 .0150432
1113.561 .0150690
1114.153 .0150860
1114.745 .0151013
1115.338 .0151160
1115.931 .0151292
1116.524 .0151452
1117.117 .0151634
1117.712 .0151800
1118.306 .0151956
1118.901 .0152119
1119.496 .0152294
1120.092 .0152474
1120.689 .0152658
1121.285 .0152850
1121.882 .0153025
1122.480 .0153202
1123.078 .0153384
1123.677 .0153569
1124.276 .0153760
1124.875 .0153979
1125.476 .0154192
1126.076 .0154414
1126.677 .0154652
1127.279 .0154871
1127.881 .0155123
1128.484 .0155403
1129.087 .0155718
1129.691 .0156034
1130.295 .0156312
1130.900 .0156572
1131.505 .0156847
1132.111 .0157122
1132.718 .0157447
1133.325 .0157786
1133.933 .0158104
1134.541 .0158430
1135.150 .0158461
1135.760 .0158380
1136.370 .0159033
1136.981 .0158986
1137.592 .0160483
1138.204 .0161368
1138.817 .0162442
1139.431 .0162516
1140.045 .0161863
1140.660 .0161559
1141.275 .0162750
1141.891 .0163314
1142.508 .0165053
1143.126 .0165729
1143.744 .0164775
1144.363 .0164312
1144.983 .0156985
