Measurement Sequence started on: 15-12-46-377
Integration time: 28
Scans to Average: 2 
>>>>>Begin Spectral Data<<<<<
432.689 .0000100
433.621 .0000100
434.552 .0000100
435.482 .0000100
436.410 .0000100
437.337 .0000100
438.262 .0000100
439.187 .0000100
440.110 .0000100
441.031 .0000100
441.952 .0000100
442.871 .0162346
443.789 .0168547
444.705 .0174548
445.621 .0177769
446.535 .0183145
447.447 .0188392
448.359 .0193575
449.269 .0198640
450.178 .0203509
451.086 .0208375
451.993 .0213077
452.898 .0168758
453.803 .0149897
454.706 .0138316
455.608 .0136459
456.508 .0128861
457.408 .0122745
458.306 .0117971
459.204 .0114057
460.100 .0110919
460.995 .0108123
461.888 .0105526
462.781 .0103229
463.673 .0101142
464.563 .0099169
465.452 .0097292
466.340 .0095365
467.228 .0093609
468.114 .0091953
468.999 .0090347
469.882 .0088905
470.765 .0087629
471.647 .0086364
472.528 .0085264
473.407 .0084242
474.286 .0083394
475.163 .0082644
476.040 .0081951
476.915 .0081394
477.790 .0080925
478.663 .0080483
479.535 .0080146
480.407 .0079972
481.277 .0079873
482.147 .0079880
483.015 .0079951
483.883 .0080027
484.749 .0080102
485.615 .0080216
486.479 .0080426
487.343 .0080640
488.206 .0080923
489.067 .0081226
489.928 .0081493
490.788 .0081847
491.647 .0082175
492.505 .0082534
493.362 .0082969
494.218 .0083339
495.073 .0083660
495.928 .0084026
496.781 .0084349
497.634 .0084702
498.486 .0085170
499.337 .0085701
500.187 .0086193
501.036 .0086691
501.884 .0087094
502.731 .0087506
503.578 .0087971
504.424 .0088552
505.268 .0089014
506.113 .0089500
506.956 .0089934
507.798 .0090341
508.640 .0090891
509.480 .0091517
510.320 .0092209
511.160 .0092969
511.998 .0093682
512.836 .0094993
513.672 .0096143
514.508 .0097522
515.344 .0099437
516.178 .0101664
517.012 .0104118
517.845 .0107024
518.677 .0110376
519.508 .0114189
520.339 .0118418
521.169 .0123159
521.998 .0128394
522.826 .0131839
523.654 .0137179
524.481 .0142109
525.307 .0146901
526.133 .0151658
526.958 .0156422
527.782 .0160566
528.605 .0163763
529.428 .0165976
530.250 .0167898
531.072 .0169708
531.892 .0170923
532.712 .0171677
533.532 .0172219
534.350 .0172315
535.168 .0171990
535.986 .0170554
536.802 .0168901
537.618 .0166745
538.434 .0164081
539.249 .0161022
540.063 .0157451
540.876 .0153438
541.689 .0149039
542.501 .0144159
543.313 .0139544
544.124 .0134257
544.934 .0129240
545.744 .0124494
546.553 .0119802
547.361 .0115148
548.169 .0111065
548.976 .0107756
549.783 .0105412
550.589 .0103145
551.395 .0100890
552.200 .0099281
553.004 .0097815
553.808 .0096591
554.611 .0095475
555.414 .0094493
556.216 .0094023
557.018 .0093422
557.819 .0093020
558.619 .0092566
559.419 .0091937
560.218 .0091295
561.017 .0090710
561.815 .0090006
562.613 .0089240
563.410 .0088419
564.207 .0087685
565.003 .0087029
565.799 .0086286
566.594 .0085485
567.388 .0084669
568.182 .0083849
568.976 .0083041
569.769 .0082181
570.562 .0081435
571.354 .0080765
572.145 .0080071
572.936 .0079538
573.727 .0079060
574.517 .0078580
575.307 .0078175
576.096 .0077830
576.885 .0077566
577.673 .0077353
578.461 .0077234
579.248 .0077182
580.035 .0077238
580.821 .0077313
581.607 .0077457
582.392 .0077660
583.177 .0077899
583.962 .0078198
584.746 .0078547
585.529 .0078998
586.313 .0079481
587.095 .0080009
587.878 .0080609
588.660 .0081262
589.441 .0081936
590.222 .0082624
591.003 .0083314
591.783 .0084013
592.563 .0084718
593.342 .0085436
594.121 .0086165
594.899 .0086926
595.678 .0087687
596.455 .0088452
597.233 .0089216
598.009 .0089963
598.786 .0090699
599.562 .0091424
600.338 .0092155
601.113 .0092869
601.888 .0093575
602.663 .0094272
603.437 .0094961
604.211 .0095645
604.984 .0096311
605.757 .0096965
606.530 .0097612
607.302 .0098244
608.074 .0098862
608.845 .0099745
609.616 .0100331
610.387 .0100921
611.158 .0101506
611.928 .0102082
612.697 .0102657
613.467 .0103220
614.236 .0103774
615.004 .0104319
615.773 .0104860
616.541 .0105393
617.308 .0105929
618.076 .0106458
618.843 .0106715
619.609 .0107235
620.375 .0107748
621.141 .0108256
621.907 .0108753
622.672 .0109246
623.437 .0109736
624.202 .0110219
624.966 .0110693
625.730 .0111163
626.493 .0111624
627.257 .0112079
628.020 .0112534
628.782 .0112978
629.545 .0113420
630.307 .0113857
631.068 .0114289
631.830 .0114713
632.591 .0115133
633.352 .0115550
634.112 .0115963
634.872 .0116375
635.632 .0116787
636.392 .0117192
637.151 .0117591
637.910 .0117978
638.668 .0118366
639.427 .0118753
640.185 .0119134
640.943 .0119514
641.700 .0119895
642.457 .0120275
643.214 .0120651
643.971 .0121024
644.727 .0121396
645.483 .0121771
646.239 .0122141
646.994 .0122519
647.750 .0122894
648.505 .0123265
649.259 .0123634
650.014 .0124000
650.768 .0124365
651.521 .0124720
652.275 .0125076
653.028 .0125426
653.781 .0125766
654.534 .0126105
655.286 .0126435
656.039 .0126759
656.791 .0127077
657.542 .0127395
658.294 .0127708
659.045 .0128022
659.796 .0128328
660.546 .0128636
661.297 .0128936
662.047 .0129234
662.796 .0129527
663.546 .0129822
664.295 .0130117
665.044 .0130407
665.793 .0130691
666.542 .0130975
667.290 .0131249
668.038 .0131525
668.786 .0131796
669.533 .0132064
670.281 .0132329
671.028 .0132592
671.774 .0132848
672.521 .0133095
673.267 .0133338
674.013 .0133580
674.759 .0133816
675.505 .0134048
676.250 .0134272
676.995 .0134495
677.740 .0134714
678.484 .0134931
679.229 .0135138
679.973 .0135343
680.717 .0135541
681.460 .0135740
682.204 .0135936
682.947 .0136126
683.690 .0136308
684.433 .0136483
685.175 .0136654
685.917 .0136819
686.659 .0136981
687.401 .0137141
688.142 .0137296
688.884 .0137449
689.625 .0137594
690.365 .0137735
691.106 .0137869
691.846 .0138001
692.586 .0138128
693.326 .0138251
694.066 .0138368
694.805 .0138481
695.545 .0138591
696.284 .0138701
697.022 .0138804
697.761 .0138902
698.499 .0138995
699.237 .0139081
699.975 .0139155
700.713 .0139224
701.450 .0139287
702.187 .0139343
702.924 .0139392
703.661 .0139435
704.397 .0139470
705.133 .0139500
705.869 .0139519
706.605 .0139528
707.341 .0139526
708.076 .0139513
708.811 .0139490
709.546 .0139468
710.281 .0139435
711.015 .0139400
711.749 .0139358
712.483 .0139312
713.217 .0139255
713.950 .0139189
714.684 .0139117
715.417 .0139032
716.150 .0138940
716.882 .0138844
717.615 .0138742
718.347 .0138636
719.079 .0138526
719.811 .0138410
720.542 .0138289
721.273 .0138162
722.005 .0138023
722.735 .0137879
723.466 .0137724
724.196 .0137565
724.927 .0137403
725.656 .0137239
726.386 .0137068
727.116 .0136894
727.845 .0136719
728.574 .0136543
729.303 .0136359
730.031 .0136171
730.760 .0135973
731.488 .0135770
732.216 .0135565
732.944 .0135360
733.671 .0135154
734.398 .0134947
735.125 .0134741
735.852 .0134533
736.579 .0134321
737.305 .0134105
738.031 .0133890
738.757 .0133673
739.483 .0133459
740.208 .0133242
740.933 .0133021
741.658 .0132802
742.383 .0132581
743.108 .0132365
743.832 .0132150
744.556 .0131932
745.280 .0131713
746.004 .0131489
746.727 .0131262
747.450 .0131030
748.173 .0130796
748.896 .0130562
749.618 .0130326
750.340 .0130090
751.062 .0129856
751.784 .0129618
752.506 .0129377
753.227 .0129137
753.948 .0128888
754.669 .0128638
755.389 .0128383
756.110 .0128124
756.830 .0127861
757.550 .0127594
758.269 .0127326
758.989 .0127054
759.708 .0126779
760.427 .0126502
761.146 .0126221
761.864 .0125937
762.582 .0125648
763.300 .0125352
764.018 .0125051
764.736 .0124746
765.453 .0124442
766.170 .0124141
766.887 .0123836
767.603 .0123531
768.320 .0123223
769.036 .0122749
769.751 .0122433
770.467 .0122109
771.182 .0121786
771.897 .0121457
772.612 .0121127
773.327 .0120795
774.041 .0120458
774.755 .0120122
775.469 .0119787
776.183 .0119448
776.896 .0119106
777.609 .0118761
778.322 .0118413
779.035 .0118232
779.747 .0117879
780.459 .0117522
781.171 .0117168
781.882 .0116812
782.594 .0116457
783.305 .0116103
784.016 .0115749
784.726 .0115395
785.436 .0115040
786.147 .0114684
786.856 .0114326
787.566 .0113963
788.275 .0113600
788.984 .0113238
789.693 .0112878
790.401 .0112516
791.110 .0112158
791.818 .0111799
792.525 .0111443
793.233 .0111086
793.940 .0110729
794.647 .0110375
795.353 .0110017
796.060 .0109661
796.766 .0109304
797.472 .0108948
798.177 .0108587
798.883 .0108225
799.588 .0107866
800.292 .0107506
800.997 .0107147
801.701 .0106788
802.405 .0106427
803.109 .0106063
803.812 .0105698
804.515 .0105335
805.218 .0104970
805.921 .0104603
806.623 .0104231
807.325 .0103862
808.027 .0103492
808.728 .0103121
809.429 .0102747
810.130 .0102376
810.831 .0102006
811.531 .0101630
812.231 .0101252
812.931 .0100873
813.630 .0100489
814.330 .0100103
815.029 .0099714
815.727 .0099327
816.426 .0098936
817.124 .0098547
817.821 .0098157
818.519 .0097772
819.216 .0097387
819.913 .0097001
820.609 .0096618
821.306 .0096237
822.002 .0095854
822.697 .0095474
823.393 .0095102
824.088 .0094730
824.783 .0094357
825.477 .0093986
826.171 .0093621
826.865 .0093261
827.559 .0092900
828.252 .0092540
828.945 .0092184
829.638 .0091831
830.330 .0091477
831.023 .0091126
831.714 .0090780
832.406 .0090437
833.097 .0090098
833.788 .0089764
834.479 .0089432
835.169 .0089104
835.859 .0088778
836.548 .0088456
837.238 .0088137
837.927 .0087821
838.615 .0087505
839.304 .0087195
839.992 .0086889
840.680 .0086582
841.367 .0086275
842.054 .0085969
842.741 .0085661
843.428 .0085354
844.114 .0085047
844.800 .0084739
845.485 .0084432
846.170 .0084123
846.855 .0083812
847.540 .0083504
848.224 .0083198
848.908 .0082892
849.592 .0082585
850.275 .0082277
850.958 .0081968
851.641 .0081660
852.323 .0081352
853.005 .0081045
853.687 .0080736
854.368 .0080431
855.049 .0080126
855.730 .0079823
856.410 .0079518
857.090 .0079212
857.769 .0078908
858.449 .0078606
859.128 .0078303
859.806 .0078000
860.485 .0077697
861.163 .0077400
861.840 .0077105
862.518 .0076812
863.195 .0076518
863.871 .0076226
864.548 .0075938
865.224 .0075655
865.899 .0075372
866.574 .0075093
867.249 .0074814
867.924 .0074538
868.598 .0074263
869.272 .0073991
869.946 .0073721
870.619 .0073453
871.292 .0073188
871.964 .0072925
872.636 .0072660
873.308 .0072400
873.979 .0072141
874.651 .0071885
875.321 .0071631
875.992 .0071379
876.662 .0071129
877.331 .0070879
878.001 .0070512
878.670 .0070269
879.338 .0070027
880.007 .0069791
880.675 .0069554
881.342 .0069321
882.009 .0069089
882.676 .0068860
883.343 .0068634
884.009 .0068409
884.675 .0068184
885.340 .0067964
886.005 .0067748
886.670 .0067537
887.334 .0067326
887.998 .0067230
888.662 .0067026
889.325 .0066824
889.988 .0066626
890.650 .0066432
891.312 .0066241
891.974 .0066053
892.636 .0065870
893.297 .0065689
893.957 .0065513
894.618 .0065341
895.278 .0065175
895.937 .0065009
896.596 .0064848
897.255 .0064688
897.914 .0064531
898.572 .0064379
899.230 .0064230
899.887 .0064083
900.544 .0063937
901.201 .0063794
901.857 .0063654
902.513 .0063515
903.168 .0063381
903.823 .0063248
904.478 .0063120
905.132 .0062994
905.786 .0062869
906.440 .0062743
907.093 .0062621
907.746 .0062503
908.399 .0062388
909.051 .0062273
909.703 .0062159
910.354 .0062048
911.005 .0061938
911.656 .0061830
912.306 .0061722
912.956 .0061617
913.605 .0061514
914.254 .0061409
914.903 .0061304
915.551 .0061199
916.199 .0061094
916.847 .0060990
917.494 .0060890
918.141 .0060788
918.788 .0060684
919.434 .0060582
920.079 .0060481
920.725 .0060380
921.370 .0060278
922.014 .0060176
922.658 .0060075
923.302 .0059972
923.946 .0059870
924.589 .0059766
925.231 .0059661
925.873 .0059559
926.515 .0059457
927.157 .0059354
927.798 .0059253
928.439 .0059149
929.079 .0059047
929.719 .0058945
930.359 .0058840
930.998 .0058735
931.637 .0058631
932.275 .0058526
932.913 .0058422
933.551 .0058316
934.188 .0058211
934.825 .0058104
935.462 .0057997
936.098 .0057891
936.733 .0057783
937.369 .0057675
938.004 .0057568
938.638 .0057458
939.273 .0057347
939.907 .0057235
940.540 .0057123
941.173 .0057012
941.806 .0056899
942.438 .0056786
943.070 .0056672
943.702 .0056558
944.333 .0056444
944.964 .0056330
945.594 .0056215
946.224 .0056100
946.854 .0055988
947.483 .0055873
948.112 .0055758
948.741 .0055643
949.369 .0055470
949.996 .0055356
950.624 .0055242
951.251 .0055127
951.878 .0055015
952.504 .0054907
953.130 .0054801
953.755 .0054694
954.380 .0054591
955.005 .0054490
955.629 .0054392
956.253 .0054295
956.877 .0054197
957.500 .0054101
958.123 .0054012
958.746 .0053925
959.368 .0053893
959.990 .0053812
960.611 .0053736
961.232 .0053665
961.853 .0053598
962.473 .0053533
963.093 .0053468
963.712 .0053402
964.331 .0053341
964.950 .0053284
965.569 .0053226
966.187 .0053170
966.804 .0053112
967.422 .0053055
968.039 .0053001
968.655 .0052947
969.272 .0052896
969.887 .0052848
970.503 .0052802
971.118 .0052755
971.733 .0052710
972.347 .0052664
972.961 .0052617
973.575 .0052567
974.188 .0052518
974.801 .0052467
975.414 .0052416
976.026 .0052367
976.638 .0052323
977.250 .0052284
977.861 .0052249
978.472 .0052211
979.083 .0052173
979.693 .0052134
980.303 .0052092
980.912 .0052049
981.521 .0052003
982.130 .0051957
982.738 .0051912
983.346 .0051872
983.954 .0051837
984.562 .0051803
985.169 .0051772
985.775 .0051744
986.382 .0051718
986.988 .0051692
987.594 .0051668
988.199 .0051644
988.804 .0051620
989.409 .0051597
990.013 .0051572
990.617 .0051550
991.221 .0051531
991.824 .0051514
992.427 .0051497
993.030 .0051482
993.632 .0051469
994.234 .0051457
994.836 .0051449
995.438 .0051439
996.039 .0051427
996.640 .0051415
997.240 .0051400
997.840 .0051383
998.440 .0051366
999.040 .0051352
999.639 .0051340
1000.238 .0051332
1000.836 .0051325
1001.435 .0051320
1002.033 .0051317
1002.630 .0051315
1003.228 .0051311
1003.825 .0051302
1004.422 .0051292
1005.018 .0051280
1005.614 .0051268
1006.210 .0051262
1006.806 .0051256
1007.401 .0051252
1007.996 .0051250
1008.591 .0051251
1009.186 .0051254
1009.780 .0051261
1010.374 .0051268
1010.967 .0051276
1011.561 .0051284
1012.154 .0051291
1012.746 .0051299
1013.339 .0051311
1013.931 .0051326
1014.523 .0051342
1015.115 .0051361
1015.706 .0051383
1016.298 .0051399
1016.888 .0051418
1017.479 .0051439
1018.069 .0051471
1018.660 .0051490
1019.250 .0051506
1019.839 .0051520
1020.429 .0051535
1021.018 .0051553
1021.607 .0051569
1022.195 .0051587
1022.784 .0051603
1023.372 .0051621
1023.960 .0051638
1024.547 .0051656
1025.135 .0051670
1025.722 .0051681
1026.309 .0051693
1026.896 .0051703
1027.483 .0051713
1028.069 .0051712
1028.655 .0051721
1029.241 .0051731
1029.827 .0051740
1030.412 .0051747
1030.997 .0051752
1031.582 .0051760
1032.167 .0051769
1032.752 .0051774
1033.336 .0051775
1033.921 .0051774
1034.505 .0051770
1035.089 .0051770
1035.672 .0051771
1036.256 .0051775
1036.839 .0051777
1037.422 .0051779
1038.005 .0051777
1038.588 .0051773
1039.171 .0051771
1039.753 .0051770
1040.335 .0051774
1040.918 .0051772
1041.500 .0051765
1042.081 .0051757
1042.663 .0051751
1043.244 .0051752
1043.826 .0051752
1044.407 .0051755
1044.988 .0051758
1045.569 .0051762
1046.150 .0051767
1046.730 .0051771
1047.311 .0051774
1047.891 .0051777
1048.471 .0051781
1049.052 .0051784
1049.632 .0051787
1050.211 .0051789
1050.791 .0051795
1051.371 .0051803
1051.950 .0051806
1052.530 .0051807
1053.109 .0051810
1053.688 .0051814
1054.268 .0051818
1054.847 .0051822
1055.426 .0051824
1056.005 .0051824
1056.583 .0051825
1057.162 .0051830
1057.741 .0051838
1058.319 .0051849
1058.898 .0051859
1059.476 .0051859
1060.055 .0051861
1060.633 .0051861
1061.211 .0051869
1061.790 .0051877
1062.368 .0051890
1062.946 .0051897
1063.524 .0051901
1064.102 .0051903
1064.680 .0051900
1065.258 .0051894
1065.836 .0051894
1066.414 .0051893
1066.992 .0051888
1067.570 .0051887
1068.148 .0051880
1068.726 .0051873
1069.304 .0051876
1069.882 .0051871
1070.460 .0051872
1071.038 .0051866
1071.616 .0051863
1072.194 .0051862
1072.772 .0051861
1073.350 .0051861
1073.928 .0051861
1074.506 .0051868
1075.084 .0051875
1075.662 .0051876
1076.240 .0051876
1076.819 .0051878
1077.397 .0051872
1077.976 .0051868
1078.554 .0051864
1079.133 .0051856
1079.711 .0051852
1080.290 .0051837
1080.869 .0051815
1081.448 .0051788
1082.027 .0051762
1082.606 .0051732
1083.185 .0051710
1083.764 .0051681
1084.343 .0051654
1084.923 .0051629
1085.502 .0051607
1086.082 .0051580
1086.662 .0051553
1087.242 .0051521
1087.822 .0051486
1088.402 .0051448
1088.983 .0051416
1089.563 .0051380
1090.144 .0051352
1090.725 .0051332
1091.306 .0051316
1091.887 .0051304
1092.469 .0051301
1093.050 .0051291
1093.632 .0051282
1094.214 .0051268
1094.796 .0051247
1095.379 .0051222
1095.961 .0051202
1096.544 .0051184
1097.127 .0051177
1097.710 .0051174
1098.294 .0051176
1098.877 .0051175
1099.461 .0051185
1100.046 .0051197
1100.630 .0051214
1101.215 .0051235
1101.800 .0051242
1102.385 .0051243
1102.970 .0051247
1103.556 .0051251
1104.142 .0051270
1104.728 .0051287
1105.315 .0051314
1105.902 .0051350
1106.489 .0051386
1107.077 .0051420
1107.664 .0051459
1108.253 .0051500
1108.841 .0051556
1109.430 .0051621
1110.019 .0051675
1110.609 .0051728
1111.198 .0051758
1111.789 .0051796
1112.379 .0051847
1112.970 .0051899
1113.561 .0051963
1114.153 .0052024
1114.745 .0052096
1115.338 .0052161
1115.931 .0052228
1116.524 .0052300
1117.117 .0052373
1117.712 .0052439
1118.306 .0052485
1118.901 .0052535
1119.496 .0052572
1120.092 .0052619
1120.689 .0052687
1121.285 .0052760
1121.882 .0052837
1122.480 .0052898
1123.078 .0052958
1123.677 .0053041
1124.276 .0053111
1124.875 .0053168
1125.476 .0053238
1126.076 .0053291
1126.677 .0053372
1127.279 .0053460
1127.881 .0053571
1128.484 .0053695
1129.087 .0053803
1129.691 .0053928
1130.295 .0054066
1130.900 .0054200
1131.505 .0054370
1132.111 .0054567
1132.718 .0054764
1133.325 .0055009
1133.933 .0055244
1134.541 .0055514
1135.150 .0054334
1135.760 .0053854
1136.370 .0054705
1136.981 .0054729
1137.592 .0055588
1138.204 .0056204
1138.817 .0056310
1139.431 .0056585
1140.045 .0057149
1140.660 .0056692
1141.275 .0058173
1141.891 .0059757
1142.508 .0060118
1143.126 .0061380
1143.744 .0061234
1144.363 .0062589
1144.983 .0063934
