Measurement Sequence started on: 15-12-46-377
Integration time: 28
Scans to Average: 2 
>>>>>Begin Spectral Data<<<<<
432.689 .0015606
433.621 .0000100
434.552 .0000100
435.482 .0000100
436.410 .0000100
437.337 .0000100
438.262 .0000100
439.187 .0000100
440.110 .0000100
441.031 .0000100
441.952 .0000100
442.871 .0099954
443.789 .0103022
444.705 .0105919
445.621 .0106114
446.535 .0108576
447.447 .0110891
448.359 .0113224
449.269 .0115420
450.178 .0117372
451.086 .0119425
451.993 .0121538
452.898 .0092114
453.803 .0079033
454.706 .0070634
455.608 .0069613
456.508 .0064326
457.408 .0060455
458.306 .0057203
459.204 .0054639
460.100 .0052867
460.995 .0051239
461.888 .0049755
462.781 .0048828
463.673 .0047955
464.563 .0047238
465.452 .0046723
466.340 .0046351
467.228 .0045894
468.114 .0045568
468.999 .0045185
469.882 .0044922
470.765 .0044852
471.647 .0044672
472.528 .0044441
473.407 .0044210
474.286 .0044069
475.163 .0043913
476.040 .0043779
476.915 .0043680
477.790 .0043486
478.663 .0043333
479.535 .0043265
480.407 .0043182
481.277 .0043140
482.147 .0043125
483.015 .0043094
483.883 .0043122
484.749 .0043153
485.615 .0043124
486.479 .0043207
487.343 .0043289
488.206 .0043427
489.067 .0043596
489.928 .0043774
490.788 .0044005
491.647 .0044296
492.505 .0044651
493.362 .0045057
494.218 .0045396
495.073 .0045694
495.928 .0045938
496.781 .0046274
497.634 .0046634
498.486 .0047010
499.337 .0047445
500.187 .0047920
501.036 .0048316
501.884 .0048771
502.731 .0049149
503.578 .0049534
504.424 .0049853
505.268 .0050149
506.113 .0050411
506.956 .0050654
507.798 .0050812
508.640 .0050950
509.480 .0051141
510.320 .0051444
511.160 .0051660
511.998 .0051852
512.836 .0052061
513.672 .0052176
514.508 .0052331
515.344 .0052378
516.178 .0052638
517.012 .0053057
517.845 .0053865
518.677 .0054934
519.508 .0055777
520.339 .0056820
521.169 .0058463
521.998 .0060803
522.826 .0062990
523.654 .0065312
524.481 .0067541
525.307 .0070050
526.133 .0072485
526.958 .0074949
527.782 .0077727
528.605 .0080466
529.428 .0083228
530.250 .0085729
531.072 .0087690
531.892 .0089266
532.712 .0090478
533.532 .0091907
534.350 .0093252
535.168 .0094525
535.986 .0095650
536.802 .0096411
537.618 .0096980
538.434 .0097095
539.249 .0096859
540.063 .0096688
540.876 .0096177
541.689 .0094966
542.501 .0093165
543.313 .0091052
544.124 .0089012
544.934 .0087175
545.744 .0084999
546.553 .0082807
547.361 .0080635
548.169 .0078170
548.976 .0075593
549.783 .0072964
550.589 .0070426
551.395 .0068521
552.200 .0066950
553.004 .0065712
553.808 .0064377
554.611 .0063156
555.414 .0061916
556.216 .0060863
557.018 .0059882
557.819 .0058916
558.619 .0057958
559.419 .0057018
560.218 .0056202
561.017 .0055567
561.815 .0054956
562.613 .0054316
563.410 .0053720
564.207 .0053199
565.003 .0052627
565.799 .0052147
566.594 .0051681
567.388 .0051210
568.182 .0050779
568.976 .0050541
569.769 .0050317
570.562 .0050159
571.354 .0049976
572.145 .0049800
572.936 .0049634
573.727 .0049443
574.517 .0049233
575.307 .0049108
576.096 .0049065
576.885 .0049079
577.673 .0049129
578.461 .0049230
579.248 .0049331
580.035 .0049447
580.821 .0049599
581.607 .0049799
582.392 .0050015
583.177 .0050263
583.962 .0050520
584.746 .0050793
585.529 .0051089
586.313 .0051438
587.095 .0051808
587.878 .0052170
588.660 .0052532
589.441 .0052873
590.222 .0053223
591.003 .0053570
591.783 .0053928
592.563 .0054294
593.342 .0054676
594.121 .0055064
594.899 .0055432
595.678 .0055787
596.455 .0056139
597.233 .0056499
598.009 .0056858
598.786 .0057208
599.562 .0057547
600.338 .0057895
601.113 .0058247
601.888 .0058596
602.663 .0058947
603.437 .0059289
604.211 .0059622
604.984 .0059948
605.757 .0060275
606.530 .0060592
607.302 .0060901
608.074 .0061207
608.845 .0061647
609.616 .0061942
610.387 .0062229
611.158 .0062522
611.928 .0062813
612.697 .0063099
613.467 .0063379
614.236 .0063657
615.004 .0063932
615.773 .0064207
616.541 .0064483
617.308 .0064753
618.076 .0065024
618.843 .0065153
619.609 .0065419
620.375 .0065685
621.141 .0065947
621.907 .0066210
622.672 .0066469
623.437 .0066726
624.202 .0066984
624.966 .0067239
625.730 .0067490
626.493 .0067736
627.257 .0067979
628.020 .0068219
628.782 .0068457
629.545 .0068690
630.307 .0068923
631.068 .0069156
631.830 .0069377
632.591 .0069596
633.352 .0069812
634.112 .0070028
634.872 .0070237
635.632 .0070448
636.392 .0070654
637.151 .0070853
637.910 .0071055
638.668 .0071265
639.427 .0071476
640.185 .0071688
640.943 .0071899
641.700 .0072114
642.457 .0072323
643.214 .0072535
643.971 .0072745
644.727 .0072957
645.483 .0073168
646.239 .0073379
646.994 .0073593
647.750 .0073812
648.505 .0074027
649.259 .0074243
650.014 .0074456
650.768 .0074667
651.521 .0074866
652.275 .0075066
653.028 .0075265
653.781 .0075460
654.534 .0075648
655.286 .0075835
656.039 .0076014
656.791 .0076191
657.542 .0076370
658.294 .0076551
659.045 .0076723
659.796 .0076888
660.546 .0077047
661.297 .0077201
662.047 .0077350
662.796 .0077501
663.546 .0077649
664.295 .0077800
665.044 .0077947
665.793 .0078090
666.542 .0078234
667.290 .0078376
668.038 .0078516
668.786 .0078659
669.533 .0078803
670.281 .0078943
671.028 .0079076
671.774 .0079215
672.521 .0079350
673.267 .0079484
674.013 .0079617
674.759 .0079749
675.505 .0079881
676.250 .0080013
676.995 .0080140
677.740 .0080263
678.484 .0080383
679.229 .0080501
679.973 .0080619
680.717 .0080737
681.460 .0080855
682.204 .0080967
682.947 .0081077
683.690 .0081182
684.433 .0081277
685.175 .0081371
685.917 .0081460
686.659 .0081548
687.401 .0081634
688.142 .0081714
688.884 .0081785
689.625 .0081856
690.365 .0081928
691.106 .0081996
691.846 .0082056
692.586 .0082115
693.326 .0082169
694.066 .0082219
694.805 .0082269
695.545 .0082313
696.284 .0082359
697.022 .0082406
697.761 .0082450
698.499 .0082495
699.237 .0082538
699.975 .0082572
700.713 .0082602
701.450 .0082628
702.187 .0082649
702.924 .0082659
703.661 .0082666
704.397 .0082672
705.133 .0082669
705.869 .0082663
706.605 .0082651
707.341 .0082630
708.076 .0082607
708.811 .0082579
709.546 .0082544
710.281 .0082504
711.015 .0082461
711.749 .0082413
712.483 .0082361
713.217 .0082306
713.950 .0082249
714.684 .0082189
715.417 .0082130
716.150 .0082066
716.882 .0081999
717.615 .0081933
718.347 .0081860
719.079 .0081781
719.811 .0081707
720.542 .0081629
721.273 .0081549
722.005 .0081468
722.735 .0081388
723.466 .0081302
724.196 .0081210
724.927 .0081120
725.656 .0081029
726.386 .0080936
727.116 .0080839
727.845 .0080739
728.574 .0080639
729.303 .0080536
730.031 .0080430
730.760 .0080321
731.488 .0080213
732.216 .0080100
732.944 .0079985
733.671 .0079867
734.398 .0079746
735.125 .0079623
735.852 .0079499
736.579 .0079376
737.305 .0079250
738.031 .0079122
738.757 .0078992
739.483 .0078864
740.208 .0078735
740.933 .0078604
741.658 .0078473
742.383 .0078340
743.108 .0078211
743.832 .0078083
744.556 .0077956
745.280 .0077831
746.004 .0077702
746.727 .0077575
747.450 .0077447
748.173 .0077318
748.896 .0077190
749.618 .0077062
750.340 .0076937
751.062 .0076811
751.784 .0076683
752.506 .0076553
753.227 .0076426
753.948 .0076297
754.669 .0076164
755.389 .0076029
756.110 .0075890
756.830 .0075747
757.550 .0075601
758.269 .0075459
758.989 .0075311
759.708 .0075160
760.427 .0075008
761.146 .0074849
761.864 .0074690
762.582 .0074525
763.300 .0074360
764.018 .0074191
764.736 .0074017
765.453 .0073842
766.170 .0073665
766.887 .0073492
767.603 .0073314
768.320 .0073132
769.036 .0072847
769.751 .0072655
770.467 .0072460
771.182 .0072267
771.897 .0072072
772.612 .0071871
773.327 .0071669
774.041 .0071462
774.755 .0071252
775.469 .0071040
776.183 .0070827
776.896 .0070613
777.609 .0070393
778.322 .0070168
779.035 .0070050
779.747 .0069822
780.459 .0069592
781.171 .0069362
781.882 .0069132
782.594 .0068900
783.305 .0068665
784.016 .0068429
784.726 .0068193
785.436 .0067958
786.147 .0067724
786.856 .0067486
787.566 .0067250
788.275 .0067012
788.984 .0066774
789.693 .0066535
790.401 .0066296
791.110 .0066060
791.818 .0065824
792.525 .0065589
793.233 .0065356
793.940 .0065126
794.647 .0064897
795.353 .0064669
796.060 .0064442
796.766 .0064214
797.472 .0063988
798.177 .0063759
798.883 .0063532
799.588 .0063304
800.292 .0063079
800.997 .0062857
801.701 .0062638
802.405 .0062419
803.109 .0062201
803.812 .0061983
804.515 .0061764
805.218 .0061545
805.921 .0061326
806.623 .0061105
807.325 .0060885
808.027 .0060663
808.728 .0060442
809.429 .0060224
810.130 .0060008
810.831 .0059791
811.531 .0059574
812.231 .0059355
812.931 .0059135
813.630 .0058910
814.330 .0058683
815.029 .0058455
815.727 .0058228
816.426 .0057998
817.124 .0057768
817.821 .0057535
818.519 .0057303
819.216 .0057070
819.913 .0056838
820.609 .0056602
821.306 .0056365
822.002 .0056126
822.697 .0055888
823.393 .0055649
824.088 .0055413
824.783 .0055175
825.477 .0054939
826.171 .0054705
826.865 .0054476
827.559 .0054247
828.252 .0054022
828.945 .0053797
829.638 .0053575
830.330 .0053355
831.023 .0053138
831.714 .0052922
832.406 .0052707
833.097 .0052493
833.788 .0052284
834.479 .0052077
835.169 .0051873
835.859 .0051672
836.548 .0051474
837.238 .0051279
837.927 .0051085
838.615 .0050894
839.304 .0050705
839.992 .0050517
840.680 .0050332
841.367 .0050146
842.054 .0049961
842.741 .0049778
843.428 .0049597
844.114 .0049416
844.800 .0049238
845.485 .0049059
846.170 .0048878
846.855 .0048694
847.540 .0048509
848.224 .0048322
848.908 .0048137
849.592 .0047949
850.275 .0047757
850.958 .0047565
851.641 .0047372
852.323 .0047180
853.005 .0046989
853.687 .0046796
854.368 .0046605
855.049 .0046413
855.730 .0046224
856.410 .0046033
857.090 .0045841
857.769 .0045651
858.449 .0045462
859.128 .0045275
859.806 .0045090
860.485 .0044906
861.163 .0044728
861.840 .0044552
862.518 .0044375
863.195 .0044197
863.871 .0044021
864.548 .0043847
865.224 .0043675
865.899 .0043503
866.574 .0043331
867.249 .0043159
867.924 .0042988
868.598 .0042819
869.272 .0042652
869.946 .0042487
870.619 .0042321
871.292 .0042157
871.964 .0041993
872.636 .0041829
873.308 .0041665
873.979 .0041502
874.651 .0041342
875.321 .0041181
875.992 .0041017
876.662 .0040854
877.331 .0040692
878.001 .0040455
878.670 .0040299
879.338 .0040143
880.007 .0039987
880.675 .0039830
881.342 .0039679
882.009 .0039526
882.676 .0039374
883.343 .0039222
884.009 .0039072
884.675 .0038921
885.340 .0038773
886.005 .0038629
886.670 .0038490
887.334 .0038354
887.998 .0038293
888.662 .0038159
889.325 .0038027
889.988 .0037897
890.650 .0037771
891.312 .0037648
891.974 .0037527
892.636 .0037408
893.297 .0037294
893.957 .0037184
894.618 .0037075
895.278 .0036971
895.937 .0036872
896.596 .0036777
897.255 .0036684
897.914 .0036594
898.572 .0036505
899.230 .0036417
899.887 .0036333
900.544 .0036253
901.201 .0036175
901.857 .0036095
902.513 .0036021
903.168 .0035950
903.823 .0035880
904.478 .0035812
905.132 .0035744
905.786 .0035680
906.440 .0035616
907.093 .0035552
907.746 .0035489
908.399 .0035426
909.051 .0035365
909.703 .0035304
910.354 .0035245
911.005 .0035188
911.656 .0035131
912.306 .0035078
912.956 .0035027
913.605 .0034975
914.254 .0034921
914.903 .0034871
915.551 .0034818
916.199 .0034765
916.847 .0034711
917.494 .0034657
918.141 .0034603
918.788 .0034549
919.434 .0034496
920.079 .0034445
920.725 .0034394
921.370 .0034344
922.014 .0034291
922.658 .0034237
923.302 .0034182
923.946 .0034127
924.589 .0034075
925.231 .0034023
925.873 .0033970
926.515 .0033918
927.157 .0033868
927.798 .0033818
928.439 .0033770
929.079 .0033723
929.719 .0033676
930.359 .0033630
930.998 .0033582
931.637 .0033533
932.275 .0033481
932.913 .0033430
933.551 .0033380
934.188 .0033329
934.825 .0033275
935.462 .0033223
936.098 .0033171
936.733 .0033120
937.369 .0033067
938.004 .0033014
938.638 .0032959
939.273 .0032901
939.907 .0032840
940.540 .0032777
941.173 .0032712
941.806 .0032647
942.438 .0032582
943.070 .0032518
943.702 .0032452
944.333 .0032385
944.964 .0032316
945.594 .0032249
946.224 .0032178
946.854 .0032106
947.483 .0032033
948.112 .0031960
948.741 .0031887
949.369 .0031778
949.996 .0031706
950.624 .0031633
951.251 .0031561
951.878 .0031487
952.504 .0031412
953.130 .0031337
953.755 .0031261
954.380 .0031187
955.005 .0031113
955.629 .0031036
956.253 .0030961
956.877 .0030887
957.500 .0030813
958.123 .0030741
958.746 .0030670
959.368 .0030639
959.990 .0030572
960.611 .0030505
961.232 .0030441
961.853 .0030381
962.473 .0030322
963.093 .0030264
963.712 .0030210
964.331 .0030155
964.950 .0030102
965.569 .0030048
966.187 .0030001
966.804 .0029953
967.422 .0029904
968.039 .0029855
968.655 .0029804
969.272 .0029755
969.887 .0029704
970.503 .0029654
971.118 .0029604
971.733 .0029555
972.347 .0029509
972.961 .0029462
973.575 .0029419
974.188 .0029373
974.801 .0029329
975.414 .0029287
976.026 .0029248
976.638 .0029207
977.250 .0029170
977.861 .0029138
978.472 .0029106
979.083 .0029074
979.693 .0029043
980.303 .0029015
980.912 .0028990
981.521 .0028964
982.130 .0028938
982.738 .0028913
983.346 .0028890
983.954 .0028868
984.562 .0028850
985.169 .0028834
985.775 .0028818
986.382 .0028800
986.988 .0028786
987.594 .0028773
988.199 .0028760
988.804 .0028751
989.409 .0028744
990.013 .0028738
990.617 .0028732
991.221 .0028726
991.824 .0028721
992.427 .0028717
993.030 .0028710
993.632 .0028702
994.234 .0028696
994.836 .0028690
995.438 .0028685
996.039 .0028682
996.640 .0028679
997.240 .0028674
997.840 .0028663
998.440 .0028654
999.040 .0028647
999.639 .0028639
1000.238 .0028631
1000.836 .0028620
1001.435 .0028609
1002.033 .0028600
1002.630 .0028587
1003.228 .0028575
1003.825 .0028560
1004.422 .0028544
1005.018 .0028528
1005.614 .0028513
1006.210 .0028500
1006.806 .0028486
1007.401 .0028473
1007.996 .0028463
1008.591 .0028451
1009.186 .0028433
1009.780 .0028417
1010.374 .0028400
1010.967 .0028385
1011.561 .0028372
1012.154 .0028360
1012.746 .0028352
1013.339 .0028350
1013.931 .0028353
1014.523 .0028356
1015.115 .0028358
1015.706 .0028356
1016.298 .0028352
1016.888 .0028349
1017.479 .0028351
1018.069 .0028361
1018.660 .0028367
1019.250 .0028375
1019.839 .0028385
1020.429 .0028395
1021.018 .0028403
1021.607 .0028414
1022.195 .0028424
1022.784 .0028430
1023.372 .0028434
1023.960 .0028438
1024.547 .0028440
1025.135 .0028443
1025.722 .0028444
1026.309 .0028446
1026.896 .0028447
1027.483 .0028442
1028.069 .0028436
1028.655 .0028431
1029.241 .0028431
1029.827 .0028430
1030.412 .0028430
1030.997 .0028431
1031.582 .0028429
1032.167 .0028430
1032.752 .0028430
1033.336 .0028430
1033.921 .0028425
1034.505 .0028420
1035.089 .0028419
1035.672 .0028421
1036.256 .0028426
1036.839 .0028431
1037.422 .0028434
1038.005 .0028434
1038.588 .0028435
1039.171 .0028429
1039.753 .0028423
1040.335 .0028416
1040.918 .0028410
1041.500 .0028409
1042.081 .0028405
1042.663 .0028401
1043.244 .0028399
1043.826 .0028400
1044.407 .0028403
1044.988 .0028405
1045.569 .0028409
1046.150 .0028413
1046.730 .0028420
1047.311 .0028430
1047.891 .0028449
1048.471 .0028468
1049.052 .0028490
1049.632 .0028514
1050.211 .0028536
1050.791 .0028560
1051.371 .0028580
1051.950 .0028604
1052.530 .0028630
1053.109 .0028657
1053.688 .0028684
1054.268 .0028714
1054.847 .0028746
1055.426 .0028776
1056.005 .0028805
1056.583 .0028831
1057.162 .0028862
1057.741 .0028889
1058.319 .0028919
1058.898 .0028947
1059.476 .0028979
1060.055 .0029016
1060.633 .0029049
1061.211 .0029085
1061.790 .0029121
1062.368 .0029159
1062.946 .0029191
1063.524 .0029225
1064.102 .0029262
1064.680 .0029291
1065.258 .0029320
1065.836 .0029345
1066.414 .0029368
1066.992 .0029381
1067.570 .0029392
1068.148 .0029400
1068.726 .0029407
1069.304 .0029407
1069.882 .0029402
1070.460 .0029402
1071.038 .0029399
1071.616 .0029397
1072.194 .0029390
1072.772 .0029384
1073.350 .0029374
1073.928 .0029353
1074.506 .0029333
1075.084 .0029315
1075.662 .0029302
1076.240 .0029295
1076.819 .0029292
1077.397 .0029283
1077.976 .0029274
1078.554 .0029269
1079.133 .0029268
1079.711 .0029268
1080.290 .0029265
1080.869 .0029265
1081.448 .0029264
1082.027 .0029260
1082.606 .0029257
1083.185 .0029259
1083.764 .0029259
1084.343 .0029255
1084.923 .0029253
1085.502 .0029254
1086.082 .0029261
1086.662 .0029269
1087.242 .0029291
1087.822 .0029318
1088.402 .0029344
1088.983 .0029378
1089.563 .0029419
1090.144 .0029456
1090.725 .0029492
1091.306 .0029525
1091.887 .0029563
1092.469 .0029604
1093.050 .0029651
1093.632 .0029709
1094.214 .0029779
1094.796 .0029853
1095.379 .0029919
1095.961 .0029974
1096.544 .0030024
1097.127 .0030075
1097.710 .0030132
1098.294 .0030185
1098.877 .0030225
1099.461 .0030259
1100.046 .0030295
1100.630 .0030332
1101.215 .0030367
1101.800 .0030404
1102.385 .0030433
1102.970 .0030447
1103.556 .0030471
1104.142 .0030490
1104.728 .0030512
1105.315 .0030536
1105.902 .0030555
1106.489 .0030567
1107.077 .0030594
1107.664 .0030606
1108.253 .0030607
1108.841 .0030612
1109.430 .0030615
1110.019 .0030619
1110.609 .0030636
1111.198 .0030645
1111.789 .0030667
1112.379 .0030689
1112.970 .0030721
1113.561 .0030740
1114.153 .0030746
1114.745 .0030735
1115.338 .0030711
1115.931 .0030701
1116.524 .0030703
1117.117 .0030683
1117.712 .0030659
1118.306 .0030660
1118.901 .0030665
1119.496 .0030667
1120.092 .0030669
1120.689 .0030653
1121.285 .0030636
1121.882 .0030609
1122.480 .0030566
1123.078 .0030536
1123.677 .0030515
1124.276 .0030496
1124.875 .0030472
1125.476 .0030471
1126.076 .0030474
1126.677 .0030444
1127.279 .0030432
1127.881 .0030448
1128.484 .0030465
1129.087 .0030490
1129.691 .0030532
1130.295 .0030561
1130.900 .0030612
1131.505 .0030664
1132.111 .0030753
1132.718 .0030838
1133.325 .0030956
1133.933 .0031113
1134.541 .0031281
1135.150 .0030090
1135.760 .0030101
1136.370 .0029513
1136.981 .0029906
1137.592 .0030571
1138.204 .0030818
1138.817 .0031246
1139.431 .0031950
1140.045 .0031719
1140.660 .0032271
1141.275 .0032564
1141.891 .0033867
1142.508 .0034133
1143.126 .0035351
1143.744 .0036581
1144.363 .0036480
1144.983 .0034258
