Measurement Sequence started on: 15-12-46-377
Integration time: 28
Scans to Average: 2 
>>>>>Begin Spectral Data<<<<<
432.689 .0000100
433.621 .0000100
434.552 .0000100
435.482 .0000100
436.410 .0000100
437.337 .0000100
438.262 .0000100
439.187 .0000100
440.110 .0000100
441.031 .0000100
441.952 .0000100
442.871 .0549202
443.789 .0568514
444.705 .0586810
445.621 .0593774
446.535 .0609783
447.447 .0625306
448.359 .0640554
449.269 .0655328
450.178 .0669676
451.086 .0683855
451.993 .0697649
452.898 .0539378
453.803 .0469808
454.706 .0428609
455.608 .0422098
456.508 .0395383
457.408 .0375356
458.306 .0359303
459.204 .0345801
460.100 .0334484
460.995 .0324352
461.888 .0315493
462.781 .0307763
463.673 .0300863
464.563 .0294807
465.452 .0289166
466.340 .0283669
467.228 .0278743
468.114 .0274241
468.999 .0269927
469.882 .0265994
470.765 .0262443
471.647 .0259031
472.528 .0255968
473.407 .0253129
474.286 .0250596
475.163 .0248234
476.040 .0246149
476.915 .0244206
477.790 .0242340
478.663 .0240562
479.535 .0238988
480.407 .0237551
481.277 .0236333
482.147 .0235287
483.015 .0234329
483.883 .0233611
484.749 .0233008
485.615 .0232503
486.479 .0232177
487.343 .0231955
488.206 .0231851
489.067 .0231878
489.928 .0232067
490.788 .0232345
491.647 .0232728
492.505 .0233263
493.362 .0233993
494.218 .0234794
495.073 .0235728
495.928 .0236818
496.781 .0238033
497.634 .0239458
498.486 .0241060
499.337 .0242753
500.187 .0244524
501.036 .0246443
501.884 .0248394
502.731 .0250520
503.578 .0252780
504.424 .0255126
505.268 .0257708
506.113 .0260532
506.956 .0263470
507.798 .0266543
508.640 .0269947
509.480 .0273575
510.320 .0277552
511.160 .0282020
511.998 .0286981
512.836 .0296604
513.672 .0303470
514.508 .0311002
515.344 .0319799
516.178 .0329493
517.012 .0340942
517.845 .0353957
518.677 .0368327
519.508 .0384164
520.339 .0401433
521.169 .0420674
521.998 .0440989
522.826 .0455217
523.654 .0476847
524.481 .0497765
525.307 .0518007
526.133 .0536774
526.958 .0555325
527.782 .0572703
528.605 .0588260
529.428 .0600808
530.250 .0611341
531.072 .0619546
531.892 .0625894
532.712 .0630288
533.532 .0632978
534.350 .0634016
535.168 .0633381
535.986 .0630579
536.802 .0626142
537.618 .0619168
538.434 .0609952
539.249 .0599003
540.063 .0586208
540.876 .0571446
541.689 .0554308
542.501 .0535652
543.313 .0515559
544.124 .0494173
544.934 .0473122
545.744 .0452252
546.553 .0432490
547.361 .0412648
548.169 .0393605
548.976 .0375833
549.783 .0360703
550.589 .0347019
551.395 .0334972
552.200 .0324115
553.004 .0314395
553.808 .0305700
554.611 .0297568
555.414 .0290252
556.216 .0283631
557.018 .0277532
557.819 .0271969
558.619 .0266880
559.419 .0262047
560.218 .0257505
561.017 .0253302
561.815 .0249407
562.613 .0245812
563.410 .0242328
564.207 .0239000
565.003 .0235861
565.799 .0232860
566.594 .0229943
567.388 .0227078
568.182 .0224334
568.976 .0221712
569.769 .0219103
570.562 .0216653
571.354 .0214348
572.145 .0212096
572.936 .0209989
573.727 .0207831
574.517 .0205811
575.307 .0203897
576.096 .0202086
576.885 .0200409
577.673 .0198862
578.461 .0197400
579.248 .0196028
580.035 .0194747
580.821 .0193551
581.607 .0192444
582.392 .0191387
583.177 .0190457
583.962 .0189610
584.746 .0188841
585.529 .0188180
586.313 .0187565
587.095 .0187052
587.878 .0186601
588.660 .0186218
589.441 .0185902
590.222 .0185624
591.003 .0185375
591.783 .0185178
592.563 .0185048
593.342 .0184973
594.121 .0184931
594.899 .0184919
595.678 .0184939
596.455 .0184967
597.233 .0185018
598.009 .0185110
598.786 .0185223
599.562 .0185358
600.338 .0185507
601.113 .0185670
601.888 .0185837
602.663 .0185998
603.437 .0186156
604.211 .0186318
604.984 .0186482
605.757 .0186641
606.530 .0186796
607.302 .0186952
608.074 .0187115
608.845 .0187349
609.616 .0187514
610.387 .0187666
611.158 .0187810
611.928 .0187952
612.697 .0188100
613.467 .0188249
614.236 .0188387
615.004 .0188523
615.773 .0188665
616.541 .0188810
617.308 .0188946
618.076 .0189082
618.843 .0189147
619.609 .0189279
620.375 .0189414
621.141 .0189550
621.907 .0189680
622.672 .0189800
623.437 .0189926
624.202 .0190059
624.966 .0190183
625.730 .0190309
626.493 .0190427
627.257 .0190542
628.020 .0190653
628.782 .0190755
629.545 .0190855
630.307 .0190952
631.068 .0191057
631.830 .0191166
632.591 .0191259
633.352 .0191340
634.112 .0191411
634.872 .0191481
635.632 .0191554
636.392 .0191615
637.151 .0191668
637.910 .0191721
638.668 .0191765
639.427 .0191815
640.185 .0191858
640.943 .0191905
641.700 .0191959
642.457 .0192012
643.214 .0192067
643.971 .0192122
644.727 .0192174
645.483 .0192229
646.239 .0192288
646.994 .0192356
647.750 .0192427
648.505 .0192497
649.259 .0192578
650.014 .0192659
650.768 .0192740
651.521 .0192825
652.275 .0192908
653.028 .0193000
653.781 .0193089
654.534 .0193176
655.286 .0193264
656.039 .0193347
656.791 .0193427
657.542 .0193505
658.294 .0193583
659.045 .0193669
659.796 .0193749
660.546 .0193824
661.297 .0193893
662.047 .0193952
662.796 .0194015
663.546 .0194078
664.295 .0194136
665.044 .0194186
665.793 .0194234
666.542 .0194283
667.290 .0194327
668.038 .0194368
668.786 .0194413
669.533 .0194451
670.281 .0194488
671.028 .0194522
671.774 .0194550
672.521 .0194575
673.267 .0194605
674.013 .0194639
674.759 .0194678
675.505 .0194711
676.250 .0194743
676.995 .0194782
677.740 .0194826
678.484 .0194868
679.229 .0194906
679.973 .0194945
680.717 .0194982
681.460 .0195021
682.204 .0195063
682.947 .0195102
683.690 .0195139
684.433 .0195169
685.175 .0195199
685.917 .0195223
686.659 .0195239
687.401 .0195249
688.142 .0195255
688.884 .0195256
689.625 .0195252
690.365 .0195246
691.106 .0195230
691.846 .0195211
692.586 .0195193
693.326 .0195168
694.066 .0195137
694.805 .0195102
695.545 .0195066
696.284 .0195028
697.022 .0194984
697.761 .0194938
698.499 .0194892
699.237 .0194846
699.975 .0194800
700.713 .0194751
701.450 .0194697
702.187 .0194637
702.924 .0194567
703.661 .0194499
704.397 .0194426
705.133 .0194344
705.869 .0194262
706.605 .0194176
707.341 .0194089
708.076 .0194000
708.811 .0193908
709.546 .0193817
710.281 .0193721
711.015 .0193621
711.749 .0193519
712.483 .0193407
713.217 .0193294
713.950 .0193175
714.684 .0193053
715.417 .0192928
716.150 .0192798
716.882 .0192669
717.615 .0192535
718.347 .0192393
719.079 .0192244
719.811 .0192087
720.542 .0191926
721.273 .0191762
722.005 .0191593
722.735 .0191425
723.466 .0191252
724.196 .0191078
724.927 .0190907
725.656 .0190731
726.386 .0190558
727.116 .0190377
727.845 .0190194
728.574 .0190013
729.303 .0189825
730.031 .0189634
730.760 .0189448
731.488 .0189262
732.216 .0189078
732.944 .0188893
733.671 .0188711
734.398 .0188526
735.125 .0188343
735.852 .0188162
736.579 .0187977
737.305 .0187788
738.031 .0187605
738.757 .0187425
739.483 .0187252
740.208 .0187077
740.933 .0186903
741.658 .0186730
742.383 .0186559
743.108 .0186388
743.832 .0186218
744.556 .0186050
745.280 .0185884
746.004 .0185716
746.727 .0185553
747.450 .0185388
748.173 .0185221
748.896 .0185059
749.618 .0184905
750.340 .0184747
751.062 .0184585
751.784 .0184421
752.506 .0184258
753.227 .0184093
753.948 .0183929
754.669 .0183764
755.389 .0183597
756.110 .0183430
756.830 .0183262
757.550 .0183089
758.269 .0182914
758.989 .0182736
759.708 .0182558
760.427 .0182378
761.146 .0182196
761.864 .0182008
762.582 .0181820
763.300 .0181636
764.018 .0181448
764.736 .0181260
765.453 .0181074
766.170 .0180889
766.887 .0180701
767.603 .0180513
768.320 .0180324
769.036 .0180033
769.751 .0179838
770.467 .0179644
771.182 .0179451
771.897 .0179259
772.612 .0179064
773.327 .0178866
774.041 .0178667
774.755 .0178465
775.469 .0178262
776.183 .0178062
776.896 .0177862
777.609 .0177662
778.322 .0177464
779.035 .0177366
779.747 .0177167
780.459 .0176971
781.171 .0176778
781.882 .0176588
782.594 .0176400
783.305 .0176211
784.016 .0176025
784.726 .0175841
785.436 .0175657
786.147 .0175471
786.856 .0175289
787.566 .0175107
788.275 .0174925
788.984 .0174740
789.693 .0174556
790.401 .0174371
791.110 .0174186
791.818 .0174002
792.525 .0173815
793.233 .0173626
793.940 .0173439
794.647 .0173250
795.353 .0173060
796.060 .0172868
796.766 .0172669
797.472 .0172469
798.177 .0172267
798.883 .0172056
799.588 .0171844
800.292 .0171631
800.997 .0171415
801.701 .0171194
802.405 .0170969
803.109 .0170737
803.812 .0170502
804.515 .0170263
805.218 .0170021
805.921 .0169776
806.623 .0169525
807.325 .0169271
808.027 .0169014
808.728 .0168755
809.429 .0168496
810.130 .0168238
810.831 .0167979
811.531 .0167718
812.231 .0167454
812.931 .0167190
813.630 .0166929
814.330 .0166665
815.029 .0166403
815.727 .0166142
816.426 .0165881
817.124 .0165620
817.821 .0165357
818.519 .0165096
819.216 .0164838
819.913 .0164583
820.609 .0164331
821.306 .0164083
822.002 .0163837
822.697 .0163592
823.393 .0163352
824.088 .0163116
824.783 .0162883
825.477 .0162648
826.171 .0162415
826.865 .0162186
827.559 .0161962
828.252 .0161742
828.945 .0161531
829.638 .0161324
830.330 .0161116
831.023 .0160910
831.714 .0160707
832.406 .0160504
833.097 .0160301
833.788 .0160097
834.479 .0159898
835.169 .0159698
835.859 .0159497
836.548 .0159299
837.238 .0159106
837.927 .0158915
838.615 .0158723
839.304 .0158532
839.992 .0158339
840.680 .0158141
841.367 .0157939
842.054 .0157739
842.741 .0157538
843.428 .0157334
844.114 .0157125
844.800 .0156916
845.485 .0156705
846.170 .0156492
846.855 .0156279
847.540 .0156064
848.224 .0155842
848.908 .0155613
849.592 .0155382
850.275 .0155149
850.958 .0154914
851.641 .0154674
852.323 .0154431
853.005 .0154190
853.687 .0153946
854.368 .0153697
855.049 .0153451
855.730 .0153206
856.410 .0152958
857.090 .0152707
857.769 .0152456
858.449 .0152205
859.128 .0151957
859.806 .0151711
860.485 .0151466
861.163 .0151221
861.840 .0150977
862.518 .0150735
863.195 .0150499
863.871 .0150266
864.548 .0150031
865.224 .0149799
865.899 .0149573
866.574 .0149346
867.249 .0149121
867.924 .0148899
868.598 .0148683
869.272 .0148465
869.946 .0148251
870.619 .0148040
871.292 .0147836
871.964 .0147639
872.636 .0147447
873.308 .0147262
873.979 .0147077
874.651 .0146896
875.321 .0146719
875.992 .0146548
876.662 .0146383
877.331 .0146219
878.001 .0145993
878.670 .0145842
879.338 .0145697
880.007 .0145556
880.675 .0145423
881.342 .0145292
882.009 .0145165
882.676 .0145038
883.343 .0144915
884.009 .0144799
884.675 .0144686
885.340 .0144575
886.005 .0144467
886.670 .0144365
887.334 .0144266
887.998 .0144225
888.662 .0144127
889.325 .0144035
889.988 .0143944
890.650 .0143855
891.312 .0143770
891.974 .0143682
892.636 .0143594
893.297 .0143503
893.957 .0143415
894.618 .0143325
895.278 .0143233
895.937 .0143140
896.596 .0143051
897.255 .0142964
897.914 .0142876
898.572 .0142789
899.230 .0142700
899.887 .0142611
900.544 .0142521
901.201 .0142430
901.857 .0142339
902.513 .0142246
903.168 .0142154
903.823 .0142065
904.478 .0141978
905.132 .0141887
905.786 .0141795
906.440 .0141705
907.093 .0141612
907.746 .0141519
908.399 .0141426
909.051 .0141333
909.703 .0141239
910.354 .0141150
911.005 .0141057
911.656 .0140962
912.306 .0140870
912.956 .0140777
913.605 .0140684
914.254 .0140592
914.903 .0140498
915.551 .0140405
916.199 .0140313
916.847 .0140220
917.494 .0140125
918.141 .0140032
918.788 .0139935
919.434 .0139838
920.079 .0139735
920.725 .0139632
921.370 .0139526
922.014 .0139419
922.658 .0139313
923.302 .0139206
923.946 .0139095
924.589 .0138983
925.231 .0138875
925.873 .0138770
926.515 .0138666
927.157 .0138565
927.798 .0138468
928.439 .0138374
929.079 .0138283
929.719 .0138192
930.359 .0138102
930.998 .0138019
931.637 .0137937
932.275 .0137857
932.913 .0137783
933.551 .0137713
934.188 .0137645
934.825 .0137585
935.462 .0137531
936.098 .0137476
936.733 .0137422
937.369 .0137368
938.004 .0137314
938.638 .0137262
939.273 .0137212
939.907 .0137165
940.540 .0137120
941.173 .0137075
941.806 .0137031
942.438 .0136987
943.070 .0136941
943.702 .0136895
944.333 .0136847
944.964 .0136797
945.594 .0136746
946.224 .0136691
946.854 .0136634
947.483 .0136572
948.112 .0136506
948.741 .0136439
949.369 .0136323
949.996 .0136253
950.624 .0136182
951.251 .0136111
951.878 .0136040
952.504 .0135968
953.130 .0135894
953.755 .0135820
954.380 .0135743
955.005 .0135666
955.629 .0135589
956.253 .0135510
956.877 .0135435
957.500 .0135362
958.123 .0135290
958.746 .0135219
959.368 .0135195
959.990 .0135123
960.611 .0135056
961.232 .0134990
961.853 .0134926
962.473 .0134863
963.093 .0134802
963.712 .0134746
964.331 .0134688
964.950 .0134630
965.569 .0134573
966.187 .0134517
966.804 .0134463
967.422 .0134409
968.039 .0134359
968.655 .0134310
969.272 .0134263
969.887 .0134216
970.503 .0134171
971.118 .0134123
971.733 .0134072
972.347 .0134019
972.961 .0133966
973.575 .0133912
974.188 .0133856
974.801 .0133807
975.414 .0133757
976.026 .0133710
976.638 .0133667
977.250 .0133622
977.861 .0133576
978.472 .0133528
979.083 .0133478
979.693 .0133427
980.303 .0133383
980.912 .0133334
981.521 .0133288
982.130 .0133242
982.738 .0133199
983.346 .0133156
983.954 .0133111
984.562 .0133068
985.169 .0133023
985.775 .0132980
986.382 .0132939
986.988 .0132897
987.594 .0132860
988.199 .0132821
988.804 .0132780
989.409 .0132740
990.013 .0132697
990.617 .0132651
991.221 .0132608
991.824 .0132566
992.427 .0132524
993.030 .0132481
993.632 .0132438
994.234 .0132399
994.836 .0132356
995.438 .0132311
996.039 .0132263
996.640 .0132213
997.240 .0132162
997.840 .0132110
998.440 .0132061
999.040 .0132016
999.639 .0131972
1000.238 .0131925
1000.836 .0131878
1001.435 .0131829
1002.033 .0131780
1002.630 .0131732
1003.228 .0131684
1003.825 .0131635
1004.422 .0131586
1005.018 .0131542
1005.614 .0131495
1006.210 .0131451
1006.806 .0131406
1007.401 .0131357
1007.996 .0131309
1008.591 .0131264
1009.186 .0131222
1009.780 .0131183
1010.374 .0131149
1010.967 .0131119
1011.561 .0131094
1012.154 .0131072
1012.746 .0131051
1013.339 .0131035
1013.931 .0131018
1014.523 .0131000
1015.115 .0130985
1015.706 .0130973
1016.298 .0130963
1016.888 .0130959
1017.479 .0130959
1018.069 .0130966
1018.660 .0130964
1019.250 .0130964
1019.839 .0130967
1020.429 .0130972
1021.018 .0130979
1021.607 .0130988
1022.195 .0130997
1022.784 .0131007
1023.372 .0131024
1023.960 .0131042
1024.547 .0131060
1025.135 .0131079
1025.722 .0131095
1026.309 .0131108
1026.896 .0131129
1027.483 .0131148
1028.069 .0131151
1028.655 .0131161
1029.241 .0131166
1029.827 .0131166
1030.412 .0131160
1030.997 .0131153
1031.582 .0131141
1032.167 .0131124
1032.752 .0131104
1033.336 .0131080
1033.921 .0131051
1034.505 .0131022
1035.089 .0130992
1035.672 .0130964
1036.256 .0130934
1036.839 .0130896
1037.422 .0130856
1038.005 .0130817
1038.588 .0130780
1039.171 .0130744
1039.753 .0130709
1040.335 .0130673
1040.918 .0130632
1041.500 .0130595
1042.081 .0130557
1042.663 .0130517
1043.244 .0130476
1043.826 .0130431
1044.407 .0130386
1044.988 .0130342
1045.569 .0130290
1046.150 .0130240
1046.730 .0130191
1047.311 .0130136
1047.891 .0130078
1048.471 .0130027
1049.052 .0129985
1049.632 .0129944
1050.211 .0129911
1050.791 .0129882
1051.371 .0129850
1051.950 .0129820
1052.530 .0129795
1053.109 .0129773
1053.688 .0129753
1054.268 .0129737
1054.847 .0129724
1055.426 .0129717
1056.005 .0129716
1056.583 .0129717
1057.162 .0129727
1057.741 .0129740
1058.319 .0129745
1058.898 .0129744
1059.476 .0129743
1060.055 .0129734
1060.633 .0129721
1061.211 .0129711
1061.790 .0129699
1062.368 .0129689
1062.946 .0129676
1063.524 .0129662
1064.102 .0129648
1064.680 .0129638
1065.258 .0129628
1065.836 .0129620
1066.414 .0129612
1066.992 .0129606
1067.570 .0129603
1068.148 .0129603
1068.726 .0129601
1069.304 .0129594
1069.882 .0129592
1070.460 .0129597
1071.038 .0129602
1071.616 .0129610
1072.194 .0129614
1072.772 .0129617
1073.350 .0129616
1073.928 .0129609
1074.506 .0129598
1075.084 .0129580
1075.662 .0129552
1076.240 .0129522
1076.819 .0129495
1077.397 .0129469
1077.976 .0129445
1078.554 .0129433
1079.133 .0129433
1079.711 .0129433
1080.290 .0129431
1080.869 .0129434
1081.448 .0129439
1082.027 .0129443
1082.606 .0129437
1083.185 .0129444
1083.764 .0129458
1084.343 .0129475
1084.923 .0129496
1085.502 .0129517
1086.082 .0129535
1086.662 .0129556
1087.242 .0129571
1087.822 .0129590
1088.402 .0129596
1088.983 .0129605
1089.563 .0129618
1090.144 .0129636
1090.725 .0129638
1091.306 .0129654
1091.887 .0129672
1092.469 .0129712
1093.050 .0129751
1093.632 .0129803
1094.214 .0129869
1094.796 .0129937
1095.379 .0130024
1095.961 .0130138
1096.544 .0130236
1097.127 .0130339
1097.710 .0130438
1098.294 .0130548
1098.877 .0130652
1099.461 .0130749
1100.046 .0130847
1100.630 .0130962
1101.215 .0131064
1101.800 .0131178
1102.385 .0131298
1102.970 .0131425
1103.556 .0131476
1104.142 .0131594
1104.728 .0131696
1105.315 .0131807
1105.902 .0131924
1106.489 .0132036
1107.077 .0132152
1107.664 .0132291
1108.253 .0132452
1108.841 .0132639
1109.430 .0132822
1110.019 .0133026
1110.609 .0133241
1111.198 .0133475
1111.789 .0133708
1112.379 .0133947
1112.970 .0134171
1113.561 .0134509
1114.153 .0134746
1114.745 .0134981
1115.338 .0135197
1115.931 .0135388
1116.524 .0135611
1117.117 .0135845
1117.712 .0136064
1118.306 .0136256
1118.901 .0136448
1119.496 .0136646
1120.092 .0136839
1120.689 .0137026
1121.285 .0137236
1121.882 .0137427
1122.480 .0137598
1123.078 .0137781
1123.677 .0137967
1124.276 .0138174
1124.875 .0138417
1125.476 .0138668
1126.076 .0138937
1126.677 .0139206
1127.279 .0139481
1127.881 .0139768
1128.484 .0140054
1129.087 .0140362
1129.691 .0140681
1130.295 .0141017
1130.900 .0141341
1131.505 .0141689
1132.111 .0142085
1132.718 .0142525
1133.325 .0143028
1133.933 .0143624
1134.541 .0144239
1135.150 .0142508
1135.760 .0142612
1136.370 .0142899
1136.981 .0143583
1137.592 .0144864
1138.204 .0145278
1138.817 .0146100
1139.431 .0147255
1140.045 .0148375
1140.660 .0148438
1141.275 .0149732
1141.891 .0151580
1142.508 .0153193
1143.126 .0155968
1143.744 .0159049
1144.363 .0159632
1144.983 .0163524
